-0.015106,-0.12589,0.010529,0.075227,0.11215,-0.63584,0.62181,0.17075
-0.0044251,-0.049897,-0.015412,-0.14786,0.26169,0.20951,0.81529,0.19516
0.019684,-0.11063,0.029755,-0.051118,-0.0068666,0.20798,0.46311,0.16342
-0.00045777,-0.088045,0.010224,-0.0062562,0.09659,-0.02182,-0.46464,-0.052644
-0.009308,-0.046845,0.015717,-0.072786,0.066377,0.014496,-0.17441,-0.18662
0.017853,-0.078279,-0.0035096,-0.18418,0.037995,0.13199,0.26658,-0.045624
0.036164,-0.16159,0.018769,-0.086824,0.041352,-0.08835,-0.53178,-0.16007
0.012055,-0.098116,-0.085908,-0.04654,0.10269,0.49607,-0.20493,-0.103
0.005951,-0.075837,-0.04593,0.011139,0.29465,0.10941,0.17411,0.0074769
0.0080873,-0.048676,-0.094148,-0.103,0.49149,-0.85863,-0.074617,0.023041
-0.02121,-0.021515,-0.11521,-0.11337,-0.5391,0.34653,0.27054,0.03006
-0.092012,0.078279,-0.15518,-0.14572,-0.98711,0.32029,0.49973,0.048066
-0.099947,0.033112,-0.11063,-0.077668,0.24491,0.16709,0.4152,0.10361
-0.085298,0.029755,-0.13046,-0.061799,0.23117,0.32395,-0.5452,0.12406
-0.083772,0.086213,-0.12497,-0.093538,-0.0086976,0.45304,-0.15854,0.12528
-0.069123,0.0074769,-0.062715,-0.030365,-0.31083,0.05417,0.35233,0.12253
-0.052033,-0.011749,-0.037079,-0.044099,0.068208,-0.64469,0.17227,0.15152
-0.047761,0.0019837,-0.08011,-0.18143,0.2327,-0.77989,0.37888,0.08835
0.018769,-0.12802,0.052644,0.049592,0.037079,0.10056,0.075227,0.025177
-0.014191,-0.082246,0.032197,-0.05417,0.029145,0.17441,-0.084382,-0.071565
-0.014191,-0.068208,-0.0065614,-0.23301,-0.31724,0.21408,-0.81224,-0.073091
0.029755,-0.11612,0.027314,-0.05478,0.14847,-0.099641,-0.75029,-0.027008
0.050202,-0.11978,-0.039826,0.065766,1.2932,-0.10452,0.75669,-0.082246
0.086213,-0.14786,-0.0074769,0.073701,0.41642,0.045319,0.067292,-0.09781
0.029145,-0.099641,-0.031891,-0.037385,-1.0008,0.20829,-1.4137,-0.21622
-0.050507,0.009308,-0.086519,-0.11734,-0.96971,-0.21134,-0.40513,-0.16373
-0.06363,0.0080873,-0.11154,-0.09781,0.21592,-0.041352,0.54856,-0.0056458
-0.077974,0.033417,-0.1384,-0.15671,0.25986,-0.023651,0.083772,0.02121
-0.10422,0.085298,-0.16159,-0.22477,0.057221,0.088655,0.22599,0.10239
-0.075532,-0.010834,-0.084077,-0.056306,-0.13535,0.26383,0.35203,0.17533
-0.056001,0.0016785,-0.12863,-0.057221,-0.01236,0.013275,0.067903,0.11032
-0.10391,0.044099,-0.08835,-0.085908,0.0206,0.068513,0.14115,0.0795
-0.10971,0.045624,-0.076143,-0.056306,0.11582,0.043488,0.3566,0.10208
-0.055085,-0.017548,-0.042573,-0.14694,0.58244,-0.066072,0.62455,0.11643
-0.0062562,-0.023957,-0.029755,-0.0013733,0.30777,0.18997,0.4097,0.056611
0.016632,-0.098116,0.042878,0.082856,-0.64805,0.27054,-0.73655,-0.018463
-0.0044251,-0.046845,-0.0083925,-0.09781,-0.43076,-0.3563,-1.4101,-0.034943
0.03769,-0.15244,0.017853,-0.18357,-0.38376,-0.72587,-0.016938,0.031281
0.051423,-0.11582,0.0086976,-0.063325,0.76249,0.030671,0.92607,0.026093
0.089265,-0.1442,0.0083925,-0.051728,-0.2208,0.6099,0.37949,-0.042573
0.098116,-0.15763,-0.0044251,0.11154,-1.0448,-0.016327,-0.25101,-0.19486
-0.042878,-0.0096132,-0.065156,0.011749,0.54063,-0.24613,-0.51652,-0.18875
-0.068818,-0.011749,-0.095979,-0.25437,0.46586,0.50401,-0.56748,-0.030976
-0.061189,-0.005951,-0.12345,-0.15976,-0.66453,0.42588,0.27817,0.066377
-0.061494,0.034333,-0.12222,-0.14939,0.54459,-0.26505,0.48325,0.074311
-0.046845,0.023651,-0.1268,-0.024872,0.78599,-0.45274,0.34287,0.068513
-0.07187,0.033417,-0.15091,-0.19791,0.67094,-0.23209,-0.21469,-0.069123
-0.046845,0.035248,-0.11612,-0.14389,0.0096132,-0.043183,0.21317,0.018158
-0.070649,0.043793,-0.093233,0.036774,-0.4332,0.27909,-0.82444,-0.016938
-0.0795,0.04593,-0.07187,-0.087129,-0.32242,0.45548,-1.2447,-0.023346
-0.089876,0.015106,-0.034028,-0.09659,-0.097505,0.43717,0.61112,0.16556
-0.023041,-0.072175,0.0074769,0.098726,-0.50278,0.21714,0.61051,0.22721
0.018769,-0.10483,0.02945,-0.083162,0.089265,-1.0249,0.22812,0.10849
0.023346,-0.10056,0.015412,-0.092927,1.2322,-1.18,0.027619,-0.13993
0.02121,-0.092317,-0.015717,-0.082551,0.010529,0.49485,0.21317,-0.043793
0.016022,-0.11582,0.022431,-0.10697,-0.61479,0.26871,0.32059,-0.0032044
0.032807,-0.14145,0.040742,0.035859,-0.21653,-0.16983,-0.031281,-0.05539
0.0019837,-0.064851,-0.08896,-0.096895,0.1622,-0.11002,-0.48936,-0.028229
0.015106,-0.072786,-0.074617,-0.12131,0.04593,-0.2501,-1.2041,-0.085298
-0.04715,0.002594,-0.11948,-0.07248,0.076143,0.64866,0.087434,-0.054475
-0.066987,0.0056458,-0.11063,-0.055695,0.43046,0.29435,0.30686,0.0071717
-0.053559,0.0022889,-0.12711,-0.021515,-0.26505,0.12131,0.42466,0.10269
-0.094453,0.063935,-0.13321,-0.10636,-1.2438,-0.0086976,0.53788,0.088045
-0.081636,0.04593,-0.098421,-0.11521,-0.20127,-0.27909,0.48814,0.089876
-0.092317,0.023346,-0.12253,-0.10391,0.75853,-0.13779,0.24949,-0.031281
-0.11765,0.08072,-0.10666,-0.14176,-0.20096,0.20371,-0.18112,0.019684
-0.049592,-0.024262,-0.017853,-0.030365,-0.38071,0.13565,-0.65263,0.072786
-0.010834,-0.067903,-0.012665,-0.068818,0.22263,0.035554,-0.81468,0.034943
-0.020905,-0.052338,-0.011749,-0.11276,0.20096,0.098726,-0.83055,0.019074
0.041962,-0.11582,0.014496,-0.030671,0.013886,0.29313,0.58244,0.13809
0.026093,-0.083772,-0.0053407,-0.092317,-0.64561,0.17533,0.71,0.10575
0.05417,-0.121,0.012055,-0.038605,-0.34836,-0.02884,-0.064546,-0.079805
0.068208,-0.14481,0.013275,0.027008,0.87907,-0.15457,-0.0013733,-0.17166
0.068208,-0.13077,0.0019837,-0.11398,1.2853,-0.5977,0.084688,-0.22141
-0.0010681,-0.066987,-0.043183,-0.13321,0.08011,0.24399,-0.42435,-0.077363
-0.079194,0.040742,-0.12253,-0.42344,-0.84764,-0.11582,0.19303,0.041047
-0.022431,-0.043793,-0.086519,0.21744,-0.27573,-0.28061,0.61845,0.098421
0.00076295,-0.058747,-0.097505,0.12375,-0.025483,0.39414,0.28428,-0.035859
-0.04654,0.031281,-0.15122,0.052949,0.17685,-0.20279,-0.18448,-0.11307
-0.16281,0.10239,-0.15183,-0.14542,0.45853,-0.47837,-0.78965,-0.063325
-0.13687,0.064546,-0.10605,-0.23117,-0.22904,0.59556,0.3566,0.2208
-0.093538,0.073701,-0.11032,-0.10147,0.38132,0.39292,0.92485,0.30838
-0.073396,-0.0062562,-0.044709,0.009308,-0.051118,0.11795,-0.11978,0.0795
-0.00045777,-0.084688,-0.052644,-0.068513,-1.1672,0.29648,-0.81834,-0.037385
-0.034333,-0.0022889,-0.02884,-0.1857,0.38193,-0.69169,-1.8581,-0.084382
-0.0013733,-0.070039,0.010224,-0.13107,0.70909,-0.068208,-0.083162,-0.0795
0.024262,-0.10422,0.026093,-0.10666,-0.11765,-0.37217,0.11246,-0.0047303
0.00076295,-0.092622,0.022431,-0.083467,0.061494,-0.23484,-0.36027,0.031586
0.012055,-0.087434,0.0032044,-0.0383,-0.63157,0.57237,1.1308,0.11063
0.03006,-0.089876,-0.014191,-0.051423,-0.27726,-0.1622,0.56504,0.09781
0.039826,-0.095979,-0.050202,-0.048981,0.22721,-0.48081,0.3331,0.015412
0.056611,-0.10697,-0.063325,-0.009308,-0.34989,0.62242,-0.015412,-0.086213
0.02121,-0.078584,-0.099336,-0.056916,-0.1622,1.0927,-0.83757,-0.20066
-0.041352,-0.0056458,-0.12039,-0.1796,0.72404,-0.15763,-0.091096,-0.16648
-0.050813,-0.048371,-0.014496,0.0074769,0.12406,-0.36179,0.2974,0.002594
-0.096895,0.047456,-0.16953,-0.045014,-0.31144,-0.20035,0.08835,0.07248
-0.094453,0.092622,-0.18418,-0.079805,-0.036469,-0.033112,0.20523,0.088655
-0.12558,0.087129,-0.092012,-0.087739,0.24582,0.36332,-0.0056458,0.045624
-0.063325,-0.014496,-0.075837,-0.17411,-0.046845,-0.25528,0.34073,0.070039
-0.05539,0.0099184,-0.070649,-0.13565,0.023041,-0.50065,0.047456,0.14847
-0.030365,-0.039521,-0.0086976,-0.036469,0.13779,-0.14511,-0.13321,0.11368
-0.033417,-0.044099,-0.016938,-0.11887,-0.19242,0.59403,0.73106,0.14115
0.017853,-0.073396,-0.012665,-0.09781,-0.16251,0.30716,0.52842,0.092012
0.012665,-0.078889,0.014191,-0.019684,0.083467,-0.24308,-0.81102,-0.11765
-0.029755,-0.074006,0.021515,-0.10147,0.45457,-0.11734,-0.83055,-0.18509
0.026703,-0.098726,-0.012055,-0.09659,-0.0068666,0.66331,1.1308,-0.01236
0.065156,-0.12833,0.012055,-0.0047303,-1.1965,1.0182,0.9868,0.055085
0.083772,-0.13626,-0.0013733,0.1323,-0.54185,0.043488,0.44816,-0.01236
0.00076295,-0.038911,-0.095979,-0.15183,1.2596,-1.4156,-0.56382,-0.24979
-0.049592,-0.014191,-0.13321,-0.10269,1.1522,-0.663,-1.949,-0.2797
-0.087739,0.040742,-0.10605,-0.096895,-0.3331,1.2688,-1.0469,-0.063935
-0.040436,-0.033417,-0.11337,-0.036774,-1.6152,0.6157,0.56077,0.075532
-0.065766,0.034333,-0.17472,-0.094453,0.59464,-0.82689,0.14511,0.056001
-0.094453,0.053559,-0.10452,-0.094759,1.1412,-0.90105,0.19944,0.057832
-0.11795,0.075532,-0.10758,-0.1384,-0.25315,0.36088,-0.64317,0.07187
-0.11398,0.05539,-0.10086,-0.087739,-0.055695,0.043488,-0.0086976,0.19669
-0.077668,0.0086976,-0.045014,-0.1088,0.029145,0.069734,0.48508,0.20768
-0.027619,-0.065766,-0.011749,-0.04715,-0.19425,-0.066377,0.42374,0.20096
0.009308,-0.084688,0.0065614,0.0090028,-0.13138,0.15824,0.62882,0.14206
0.048371,-0.10666,0.016022,-0.12161,0.13443,0.092317,0.45182,0.034943
0.029755,-0.079805,-0.0038148,-0.15335,0.22324,0.0010681,0.27146,-0.046845
0.0053407,-0.093538,0.028534,-0.0206,0.0050355,0.010529,-0.76982,-0.21744
0.011444,-0.1149,0.012055,0.030976,-0.060883,0.12528,-1.1547,-0.15976
0.02121,-0.08011,-0.01236,-0.10758,-0.10025,0.19791,0.52018,0.064546
0.053864,-0.10452,-0.060578,-0.0022889,-0.32425,0.16159,0.66728,0.11978
0.016938,-0.059663,-0.056001,-0.093538,-0.12528,-0.091707,0.13809,0.022126
-0.073396,0.042267,-0.12833,-0.16159,0.17746,-0.52934,0.22507,-0.1445
-0.028534,-0.028534,-0.11978,-0.13993,0.11887,0.31968,0.4152,-0.0019837
-0.061189,0.02945,-0.15976,-0.044709,0.70665,0.10605,0.33219,0.041047
-0.082856,0.093538,-0.13962,-0.070649,0.30198,-0.17594,0.31449,0.038911
-0.050813,0.017853,-0.10636,-0.033722,-0.20279,0.2388,0.059358,0.032197
-0.088045,0.018158,-0.093233,-0.16129,-0.0972,-0.20706,-1.1424,-0.1323
-0.041962,-0.0028992,-0.077058,-0.078279,-0.58671,0.28367,-1.6851,-0.092927
-0.01297,-0.043793,-0.034028,-0.032197,-0.88792,0.40787,-0.15152,-0.050813
-0.049897,-0.048981,-0.018769,-0.11551,-0.17288,0.031281,0.94194,-0.030365
-0.078889,-0.024872,-0.036469,-0.18418,0.29465,-0.2153,0.3151,0.031891
0.022736,-0.13046,0.045014,0.015106,0.35996,-0.43229,-0.9218,0.078279
0.02182,-0.082856,0.023346,-0.022736,-0.069734,0.025483,-0.58701,0.03006
0.015106,-0.1146,0.034333,-0.041352,-0.16953,-0.069429,-0.46281,-0.039216
0.041962,-0.11429,-0.018158,-0.05478,0.30961,-0.27939,0.50065,0.057221
0.0086976,-0.078279,-0.016632,-0.039521,0.35996,0.0077821,0.37522,0.057832
-0.0010681,-0.08957,-0.030671,-0.030976,-0.017548,0.077668,0.1915,0.0038148
-0.063325,0.034638,-0.098726,-0.17288,0.090486,0.073396,0.23575,0.0071717
-0.056916,0.010224,-0.13138,-0.15305,0.2089,0.37766,0.36057,0.08011
-0.061189,0.00015259,-0.13962,0.16037,0.12802,0.45762,0.23606,0.061494
-0.035248,0.011444,-0.1387,-0.13474,-0.33829,0.27695,0.045319,0.057832
-0.083162,0.059358,-0.13291,-0.32792,-0.39048,-0.25864,0.30564,0.079805
-0.094453,0.067597,-0.092927,-0.11734,0.18479,-1.3313,0.31296,0.04593
-0.035859,-0.053559,-0.04715,0.15732,0.32059,0.12711,0.61326,0.10269
-0.055085,-0.0383,-0.095979,-0.036774,-0.090181,0.36027,0.40726,0.02945
-0.10208,0.028534,-0.055695,-0.28367,-0.58213,-0.10391,-0.56657,-0.11643
-0.041047,-0.042267,-0.0077821,-0.11734,-0.1619,-0.19181,-1.5712,0.05539
0.027314,-0.12192,0.019989,-0.070344,0.16678,0.02945,0.009308,0.063325
0.059052,-0.14847,0.05478,0.0090028,0.19059,0.79942,0.11063,-0.063935
0.028229,-0.0795,0.0016785,-0.093538,-0.30014,0.46006,0.061494,-0.04715
0.051423,-0.10544,0.0016785,-0.0019837,-0.533,-0.40269,0.22568,-0.023041
0.035554,-0.1088,-0.022736,-0.066682,0.32364,-0.3798,0.00076295,-0.11612
0.0041199,-0.059358,-0.03006,-0.10056,1.4903,-0.20096,0.029145,-0.083772
-0.0022889,-0.037995,-0.093538,-0.035248,0.33005,0.022126,0.16129,0.011139
-0.0065614,-0.038605,-0.084688,0.0056458,-0.23941,0.037385,0.076143,-0.019074
-0.016938,-0.018463,-0.14725,-0.11734,-0.61082,0.60624,0.15732,0.010529
-0.069734,0.068208,-0.18784,-0.19364,-1.2804,1.0988,0.13016,-0.025483
-0.086213,0.041657,-0.13046,0.048066,-0.42893,0.11398,-0.27359,-0.051728
-0.098421,0.037079,-0.081331,-0.10788,0.89097,-1.2163,-0.40726,0.021515
-0.11398,0.031281,-0.072786,-0.037385,0.54551,-0.75761,0.10971,0.09659
-0.08835,0.0044251,-0.089265,0.0019837,-0.11765,0.22995,0.22141,0.086213
-0.056001,-0.0044251,-0.084993,-0.22354,-0.17685,0.59403,0.22141,0.12009
-0.0041199,-0.032197,-0.024262,-0.14054,-0.10147,0.18143,0.10025,0.091707
-0.014191,-0.050202,-0.0019837,-0.092622,0.13504,-0.49485,-0.56046,-0.00015259
0.005951,-0.066682,0.017243,-0.036774,-0.35264,-0.21805,0.12406,0.0795
0.019379,-0.14603,0.078889,0.026703,0.18479,0.3505,0.77928,0.13291
0.0028992,-0.12192,0.026398,0.00045777,0.21439,-0.21012,0.65599,-0.00045777
-0.0086976,-0.06363,-0.044709,-0.14542,0.45518,-0.016327,0.21256,0.11032
0.039521,-0.10544,-0.023957,-0.12589,-0.16403,0.18692,-0.50095,0.18967
0.053254,-0.10544,-0.040436,-0.047456,-1.0222,-0.16922,0.74235,-0.052949
-0.017243,-0.026093,-0.059358,-0.057221,-0.11185,-0.46616,0.8629,-0.44236
-0.060578,-0.0022889,-0.11765,-0.035248,1.3051,-0.1442,-0.51194,-0.50309
-0.099641,0.034333,-0.1445,-0.15335,0.013275,-0.0010681,-2.0378,-0.24887
-0.076753,0.042267,-0.15152,-0.14755,-0.55985,0.11124,-1.7192,0.070039
-0.083162,0.019074,-0.10513,-0.061799,-0.027619,0.15366,0.65751,0.19303
-0.08011,0.048676,-0.10056,-0.035248,0.030365,0.051423,1.2136,0.1503
-0.059968,-0.0019837,-0.103,-0.11032,0.39322,-0.094759,0.71153,0.14054
-0.049287,-0.023957,-0.090181,-0.1146,0.22995,-0.18265,-0.31327,0.036774
-0.018769,-0.0022889,-0.040742,-0.051423,0.24674,-0.16831,-0.47471,0.061494
-0.043488,-0.018769,-0.0096132,-0.15213,0.06302,0.70054,0.23514,0.039826
-0.022126,-0.08896,0.0099184,-0.25742,-0.34562,0.17319,-0.392,0.016632
0.011749,-0.099947,0.023957,0.29496,-0.85222,-0.2089,0.52293,0.13993
0.013886,-0.11856,0.028534,-0.064851,-0.56291,0.19394,0.86473,0.16617
0.045319,-0.10697,0.025788,-0.031281,-0.25345,0.63859,1.1061,0.15152
0.027314,-0.064546,-0.035554,0.0050355,0.2327,0.19028,1.27,0.10758
0.015717,-0.068818,-0.0090028,-0.22293,0.67643,-0.31388,0.50126,-0.14328
-0.017243,-0.057832,-0.083467,-0.074617,0.55497,-0.27543,-0.85527,-0.19455
-0.021515,-0.056001,-0.092012,-0.073396,0.079194,-0.22629,-1.5267,-0.10513
-0.038605,-0.019684,-0.12467,-0.10239,-0.11704,-0.15793,-2.1541,-0.14481
-0.04715,0.036469,-0.12039,-0.065766,-0.11917,0.034028,-0.60594,-0.064546
-0.0010681,-0.044404,-0.11337,0.085603,-0.33402,0.068513,0.84886,0.049592
-0.053254,0.034028,-0.13626,-0.16617,0.19821,-0.062104,0.28641,-0.058747
-0.12161,0.073701,-0.1207,-0.22141,0.055085,0.23758,0.082856,-0.032807
-0.12253,0.086213,-0.10483,-0.14511,0.16617,0.36423,0.21683,0.13657
-0.014496,-0.020905,-0.034943,0.040742,0.61295,0.10452,0.36698,0.18021
0.0047303,-0.095979,-0.011444,-0.0044251,-0.0022889,-0.019684,0.19242,0.0077821
0.022736,-0.05539,-0.018769,-0.1384,-0.84642,-0.082551,0.033417,-0.028229
0.035859,-0.057832,0.0071717,-0.11521,-0.37217,0.28183,0.31907,0.086519
0.033722,-0.075532,0.0206,-0.069734,0.30472,-0.049287,0.21164,0.039521
-0.029145,-0.077668,0.012665,-0.022126,0.051118,-0.94377,-0.22812,0.0099184
-0.035554,-0.10483,0.026093,-0.027314,0.37308,-0.063325,-0.36759,0.029145
-0.022431,-0.12253,-0.014496,-0.11582,-0.24826,0.97795,0.13596,0.12253
-0.031586,-0.054475,-0.04654,-0.10178,-0.76188,0.28092,0.22202,0.010834
-0.056611,-0.016938,-0.076448,0.013581,0.0053407,-1.0039,0.36606,-0.064546
-0.062715,0.024262,-0.11215,-0.093538,1.4116,-0.83024,0.067292,-0.14084
-0.032502,-0.052949,-0.093233,-0.16495,0.55344,0.28305,-0.036774,-0.05478
-0.050507,0.0099184,-0.121,-0.12802,-0.70878,0.048066,0.41581,-0.025483
-0.086213,0.045319,-0.14633,-0.030671,-0.41489,0.11643,0.057832,0.033417
-0.089265,0.034028,-0.1564,-0.16342,0.36606,-0.038911,-0.19272,0.067903
-0.065156,-0.017548,-0.08835,0.018463,0.051118,0.18936,-0.49393,0.019989
-0.075532,0.07126,-0.11673,-0.15946,-0.39017,0.6389,-0.48661,-0.02884
-0.034638,-0.010224,-0.044099,-0.14969,-0.31296,-0.27115,-0.87724,-0.0032044
-0.032502,-0.048371,-0.034943,-0.036469,-0.215,-0.29679,-0.77379,0.013886
0.0071717,-0.065461,0.0019837,-0.13107,-0.4329,0.52049,0.68223,0.070649
0.033112,-0.082551,0.022126,-0.048981,0.12711,-0.077363,0.32395,0.059052
0.037385,-0.10422,0.017853,0.016938,0.75578,-0.095369,0.13291,-0.019074
0.042878,-0.10636,0.022126,0.023041,0.46006,-0.041657,0.18296,-0.0090028
0.015106,-0.11948,0.00045777,-0.029145,-0.30808,-0.17288,0.042267,0.013886
0.035248,-0.10239,-0.010224,-0.16342,-0.10086,0.2385,0.40177,0.13169
0.015717,-0.070649,-0.036774,-0.031281,0.2562,0.69718,0.70085,0.068208
0.054475,-0.12345,-0.058747,0.099031,0.27848,0.11002,0.60685,0.034333
-0.0083925,0.0038148,-0.15244,-0.24094,0.15,-0.2623,-0.14084,-0.18601
-0.090791,0.074006,-0.15335,-0.14481,-0.89433,-0.45609,-1.2023,-0.23728
-0.10758,0.062409,-0.12436,-0.077668,-0.22354,0.053559,-0.42618,-0.0056458
-0.087129,0.027619,-0.095369,-0.083162,0.48692,0.059663,-0.078889,0.023041
-0.065461,0.027924,-0.14939,-0.069123,-0.51652,0.56535,0.13443,0.051728
-0.083467,-0.0044251,-0.11093,-0.034333,-0.61143,0.1091,0.030365,0.027008
-0.10422,0.034028,-0.10849,-0.11734,1.0561,-1.1064,-0.033112,0.023957
-0.032807,-0.023346,-0.02182,-0.092317,0.36912,-0.085603,0.31022,0.16617
-0.064546,-0.0056458,-0.019989,-0.091096,-0.08011,0.12131,0.60929,0.066377
-0.0062562,-0.074311,-0.024262,-0.1265,0.17655,-0.40177,-0.51225,-0.06363
0.030976,-0.11978,0.062409,-0.1796,0.052033,0.16373,-0.93584,-0.046845
0.059052,-0.17014,0.02884,0.10513,-0.095369,0.41581,0.47807,0.035248
0.023041,-0.071565,-0.028229,-0.099641,-0.023651,-0.0795,-0.34257,-0.031281
-0.0062562,-0.076143,-0.0086976,-0.12375,-0.039521,-0.059968,-0.38651,-0.044709
-0.0028992,-0.088655,-0.01297,-0.016938,0.066377,0.062104,0.31052,0.062409
-0.019074,-0.04593,-0.07126,-0.061189,0.168,0.070649,0.61845,0.11307
-0.019379,-0.052949,-0.054475,-0.050507,0.034333,0.15091,0.70329,0.10849
-0.03769,-0.029755,-0.1033,-0.086519,-0.3975,0.21378,1.0976,0.035859
-0.060578,0.027314,-0.13993,-0.084382,-0.40482,-0.095369,0.35142,-0.1033
-0.059663,0.029145,-0.15183,-0.02884,0.11093,-0.36362,-0.71977,-0.099031
-0.10208,0.065461,-0.13687,-0.18173,0.6746,-0.121,-1.6246,-0.11704
-0.11734,0.061799,-0.10452,-0.22477,-0.29953,0.54582,-0.31418,0.018158
-0.059358,0.0044251,-0.090486,-0.11032,-0.50492,-0.26658,-0.15702,0.086213
0.00045777,-0.025788,-0.080415,-0.075227,0.20127,-0.15396,-0.016632,0.1091
-0.052033,0.011139,-0.029755,0.2153,-0.24063,0.37217,0.48936,-0.03769
-0.016632,-0.10239,0.012055,-0.036164,-0.10239,0.59464,0.57816,0.027008
-0.010529,-0.11673,0.023957,-0.1265,0.62638,0.15793,0.92821,0.17655
-0.0383,-0.081636,0.017243,-0.14664,-0.069734,-0.34104,0.34684,0.13779
0.0013733,-0.078889,0.009308,-0.14084,0.11154,-0.75822,-0.8452,0.077974
0.022736,-0.090181,-0.005951,-0.012055,0.044099,0.21866,0.26841,0.10483
0.090181,-0.14969,0.018769,0.060273,0.011444,0.20401,0.48203,-0.034638
0.0032044,-0.041352,-0.077363,-0.041352,0.02884,-0.24949,-0.92363,-0.28275
0.0080873,-0.031891,-0.050507,-0.077058,-0.28153,-0.010224,-0.64836,-0.17807
0.041352,-0.084077,-0.068208,-0.35966,-0.019074,0.040742,0.76097,-0.12131
-0.026703,0.02945,-0.13443,0.18143,0.65446,-0.080415,-0.36637,-0.14023
-0.08896,0.040436,-0.11948,-0.036774,0.4921,-0.0080873,-0.06363,0.0090028
-0.023346,-0.031891,-0.18814,-0.16495,-0.085908,0.005951,0.1915,0.078584
-0.08011,0.049897,-0.13565,-0.21347,-0.5745,0.032197,-0.03769,-0.014801
-0.10361,0.067903,-0.10147,-0.10697,-0.12619,0.012665,0.13626,0.039521
-0.085298,0.029145,-0.086519,-0.02945,-0.13596,0.42985,0.27573,0.18326
-0.070954,0.010224,-0.060273,-0.078584,0.01297,0.30472,0.20798,0.11795
-0.057832,-0.020905,-0.031891,-0.17533,0.71733,-0.34592,0.13413,0.052338
-0.037079,-0.078584,0.010834,-0.034333,-0.063325,-0.35996,0.19364,0.047761
-0.018463,-0.063325,0.014191,0.032807,-0.43015,0.24674,0.14908,0.058442
0.0038148,-0.092927,0.0041199,0.028534,-0.65873,0.28214,-0.16831,0.0019837
-0.00076295,-0.103,0.045624,-0.02121,-0.2504,-0.59525,-0.16464,-0.018463
0.044099,-0.14694,0.019989,-0.13443,0.23392,-0.012665,0.21866,0.13077
0.005951,-0.080415,0.0047303,-0.069123,0.1854,0.34806,0.35142,0.068208
0.0016785,-0.12192,-0.049897,-0.13565,0.62028,0.19089,0.39353,-0.08011
-0.021515,-0.042878,-0.15122,-0.19944,0.074617,0.26383,0.22263,-0.16037
-0.014801,0.019074,-0.16159,-0.14878,-0.3856,-0.052338,-0.61082,-0.13016
-0.043793,-0.0065614,-0.060273,-0.010224,0.0074769,-0.65293,-1.4131,-0.082246
-0.043488,-0.010224,-0.10849,0.0044251,0.4094,-0.019684,0.12589,0.051423
-0.085603,0.058747,-0.12955,-0.074311,0.042878,0.029145,0.31785,0.11215
-0.083467,0.047761,-0.11917,-0.088655,-0.23087,0.018158,0.12436,0.092012
-0.1033,0.079805,-0.11246,-0.087434,-0.27848,0.14542,0.57908,0.052949
-0.075837,0.034028,-0.065766,-0.018769,-0.0041199,0.22049,0.51987,0.065461
-0.078279,-0.0035096,-0.066072,-0.1091,0.34073,0.21225,-0.081941,-0.0013733
-0.014191,-0.121,0.018158,-0.08072,0.61326,-0.27298,-0.27512,0.0047303
0.048981,-0.068208,0.017853,-0.011444,0.12589,-0.048981,-0.4033,0.076143
0.044404,-0.103,-0.00076295,-0.043488,-0.29953,0.073091,-1.1736,-0.048981
0.033417,-0.099641,-0.0074769,-0.12192,0.38651,-0.56565,-0.47288,-0.08835
0.0080873,-0.10361,0.054475,0.063935,-0.35843,-0.14389,0.48417,-0.085298
0.033722,-0.11398,0.0053407,-0.018769,-1.0851,1.0661,0.16739,0.026703
0.018158,-0.045624,-0.066987,-0.34318,0.13016,0.041657,0.40177,0.063935
-0.021515,-0.02884,-0.046235,-0.15976,-0.16403,0.023957,0.65965,-0.00076295
-0.023041,-0.05417,-0.066987,-0.055695,-0.53178,0.96605,1.0658,0.10971
-0.0053407,-0.052338,-0.12528,0.014496,-1.09,0.84825,0.74083,0.047456
-0.056001,0.015106,-0.14115,0.0074769,-0.098421,-0.43351,-0.51041,-0.069429
-0.10971,0.085298,-0.15,-0.092622,1.5602,-1.9255,-1.2428,-0.083162
-0.090181,0.059968,-0.13169,-0.077058,1.3182,-0.14481,-0.7924,0.065156
-0.070039,0.0047303,-0.10117,-0.010834,-0.17502,0.33677,-0.53025,-0.04593
-0.077363,0.0206,-0.089265,-0.11154,0.20462,-0.34409,-0.48356,-0.055695
-0.046845,-0.049897,-0.02182,-0.1033,0.06302,0.65446,0.33433,0.023957
-0.030671,-0.023651,-0.037079,-0.11673,-0.62821,0.85557,0.94011,0.065156
-0.037079,-0.044709,-0.011749,-0.023346,-0.1384,0.62272,0.32883,0.084077
-0.015106,-0.052338,-0.025483,-0.060883,0.1622,0.090791,-0.86473,0.055695
-0.0053407,-0.062409,0.0053407,-0.12284,0.1622,-1.2837,-0.48356,-0.017548
0.015412,-0.08835,0.032502,-0.11154,-0.71305,-0.33127,0.38651,-0.0032044
0.061189,-0.16434,0.039826,0.025788,0.22477,-0.44083,-0.18021,-0.013275
0.0383,-0.092927,-0.014496,-0.077668,0.50492,0.11063,-0.44511,-0.034638
0.015717,-0.072175,-0.043183,-0.11032,0.53574,0.18967,0.35813,-0.010529
0.015717,-0.084077,-0.070649,-0.0090028,0.10575,0.050202,0.31632,0.0090028
-0.035248,0.00045777,-0.11063,-0.085603,-0.40146,0.23789,0.030976,-0.066682
-0.077363,0.033112,-0.11368,-0.10147,-0.39841,0.21561,0.048066,-0.098421
-0.089265,0.059663,-0.13474,-0.057527,-0.055085,0.076753,0.30411,0.073701
-0.065156,-0.045624,-0.085298,0.14725,0.056001,0.078889,0.31449,0.11154
-0.07187,0.043183,-0.14908,-0.32425,0.089876,-0.068513,0.18082,0.0795
-0.058747,0.0099184,-0.09659,-0.12924,-0.02884,-0.065766,0.16129,0.066682
-0.13443,0.10117,-0.13443,-0.20127,-0.32517,0.36515,-0.035859,0.084382
-0.072175,0.019074,-0.052338,-0.070954,-0.30137,0.79545,-0.22354,0.14054
-0.024567,-0.044709,0.0096132,-0.059663,0.25895,-0.079194,0.073701,0.10025
-0.033112,-0.051423,0.010834,-0.047456,0.13993,-1.1177,0.10849,-0.072175
0.0080873,-0.095979,-0.0086976,-0.041657,0.18967,0.41886,-0.69902,-0.098421
0.0099184,-0.095674,0.01236,-0.068513,-0.0062562,0.13077,-0.22232,-0.043793
0.0096132,-0.10758,0.018769,-0.010224,0.27817,0.22477,0.75578,0.032807
0.033722,-0.16648,0.012055,0.049287,0.1976,0.21317,0.63096,0.1384
0.065766,-0.17563,0.0383,-0.12711,-0.088045,0.13901,0.30594,0.011749
0.018769,-0.055695,-0.10544,-0.36484,-0.69474,0.045624,-0.50278,-0.15366
0.025788,-0.074922,-0.063935,0.26139,0.12589,-0.53208,-1.1559,-0.17014
-0.038605,0.03006,-0.11307,-0.11368,0.40452,-0.079194,0.013886,-0.057832
-0.052033,0.026093,-0.11643,-0.096895,0.21866,0.02945,0.58244,0.059968
-0.081941,0.055695,-0.1387,-0.055085,0.16068,-0.12406,0.45548,0.094148
-0.092317,0.089265,-0.13626,-0.18357,-0.10575,-0.1738,0.23697,0.075532
-0.040436,-0.018158,-0.11856,0.0053407,-0.20188,0.15427,-0.0068666,-0.024262
-0.057527,0.040131,-0.11612,-0.13901,-0.15824,0.043183,-0.53635,-0.10697
-0.072786,0.031891,-0.082246,-0.12985,0.1564,-0.31479,-1.2056,-0.083772
-0.04593,0.022126,-0.059358,-0.16403,-0.67735,0.45518,0.12619,0.05417
-0.049897,-0.066377,0.014496,-0.059663,-0.30564,-0.0022889,0.77409,0.10636
0.024872,-0.14145,0.058137,0.048981,-0.0383,-0.083467,0.23758,0.072175
0.058442,-0.12161,0.018463,-0.032197,0.24826,-0.11093,-0.73716,-0.00045777
0.036774,-0.084077,0.0019837,-0.096895,0.25528,0.02945,-0.28794,0.012055
0.036164,-0.085603,0.0077821,-0.073396,0.13321,0.15946,-0.2031,0.051728
-0.012665,-0.058442,-0.010224,0.00045777,0.58091,0.22538,0.48966,0.067292
0.015717,-0.17288,0.029755,0.099947,-0.28305,0.4802,0.79515,0.045014
-0.035859,-0.06424,-0.11337,-0.14084,0.036774,0.095064,0.35721,-0.039826
-0.068818,0.018158,-0.1146,-0.29221,0.14237,-0.7863,-0.5211,-0.044404
-0.040742,-0.0013733,-0.093233,-0.16861,0.25467,0.0080873,0.11246,0.055085
-0.0053407,-0.032502,-0.13443,0.21378,-0.31968,0.12955,0.21164,0.024262
-0.10422,0.063935,-0.14054,-0.22599,-0.55222,-0.35966,-1.0298,-0.1564
-0.12436,0.065156,-0.12985,-0.19059,0.37125,0.079805,0.074006,0.10849
-0.1033,0.050507,-0.10605,-0.062409,0.3682,0.25956,0.89586,0.25895
-0.085908,0.048066,-0.10208,-0.074922,0.40848,0.25681,1.2914,0.17655
-0.023041,-0.022126,-0.042878,-0.022126,0.77867,-0.030976,1.0021,0.081331
0.0099184,-0.084382,-0.015412,0.013581,-0.20981,-0.076448,-0.32944,-0.23423
0.0068666,-0.061494,-0.025788,-0.045624,-1.7861,0.32212,-1.8245,-0.26078
0.0013733,-0.072175,0.0032044,-0.20615,-0.6511,-0.94438,-0.46311,-0.083162
0.0053407,-0.0795,0.026398,-0.1033,0.78019,-0.82658,0.87694,-0.0096132
0.031586,-0.1146,0.026093,0.0035096,0.51316,0.6569,-0.11337,-0.035859
0.027619,-0.08835,-0.0077821,0.009308,0.76677,-0.11215,-1.2419,-0.064546
0.030976,-0.11002,-0.0096132,-0.11704,-0.26474,-0.062104,-0.022736,-0.020905
0.0032044,-0.092317,-0.018463,-0.074922,-0.69169,0.078279,0.2388,0.027924
-0.010834,-0.051423,-0.084077,-0.077363,0.31022,-0.020294,0.45609,0.040436
-0.031891,-0.019379,-0.091096,-0.062409,-0.065156,0.15732,0.47318,0.049897
-0.077668,0.041657,-0.14694,-0.084382,-0.34836,0.18967,0.47532,0.082246
-0.05539,0.01236,-0.0972,-0.070954,0.31815,0.13657,0.35447,0.13931
-0.063325,0.034333,-0.16129,-0.14969,0.18662,0.097505,-0.24338,0.069429
-0.048981,0.013581,-0.11276,0.0013733,0.06302,0.31235,0.20584,0.06363
-0.028534,-0.032197,-0.091096,0.079194,0.25925,0.16495,-0.064851,0.0056458
-0.043793,0.051728,-0.11887,-0.13107,0.2623,-0.08011,-0.41062,-0.042878
-0.088045,0.031586,-0.041047,-0.26566,0.29252,-0.23545,-0.23514,-0.031281
-0.091707,-0.0206,-0.012665,-0.090486,-0.9276,0.24674,0.26047,0.11765
-0.012055,-0.065461,0.0035096,-0.048676,-0.39414,-0.06363,0.45884,0.23209
-0.010224,-0.087434,-0.011749,-0.099336,0.98955,-0.52384,0.11826,0.025177
0.025177,-0.121,0.022126,-0.081636,-0.097505,-0.64958,-0.34195,-0.1445
0.041962,-0.13748,0.028229,0.010529,0.28916,-0.16373,-0.12406,-0.15366
-0.02121,-0.059968,-0.026703,-0.13107,0.24552,0.62821,0.19516,-0.12406
0.031281,-0.12161,0.019379,0.035859,0.041352,0.16098,-0.71916,-0.043488
0.0096132,-0.062409,-0.08011,-0.066987,0.18692,0.070649,-0.24949,-0.0074769
0.0090028,-0.074006,-0.037995,-0.13565,-0.56992,0.23545,0.1445,-0.0062562
-0.015717,-0.032807,-0.10422,-0.20615,-0.3032,-0.38315,0.11826,0.043488
-0.068818,0.044709,-0.14908,-0.073396,0.36728,-0.24369,0.3209,0.076448
-0.062715,0.017243,-0.14878,0.075837,-0.44388,0.15213,0.20584,0.09659
-0.065766,0.037079,-0.14694,-0.085603,0.22049,0.072175,-0.075837,0.013275
-0.07126,0.076448,-0.11978,-0.15885,-0.15091,0.65263,-0.041352,0.039216
-0.078889,0.027314,-0.086824,-0.057527,-0.022126,0.049592,0.13535,0.075837
-0.057832,0.022736,-0.082551,-0.051118,0.25834,-0.19913,0.29801,0.039521
-0.084077,0.032502,-0.059052,-0.13901,0.56657,-0.081941,0.48264,0.080415
-0.069429,-0.017853,0.002594,-0.10666,-0.38651,-0.084382,0.46769,0.17319
0.020905,-0.13779,0.027924,-0.046235,-0.83482,-0.0972,0.3386,0.11215
0.016022,-0.10758,0.0022889,-0.12131,0.17929,0.015106,0.40146,0.023041
0.014801,-0.086519,-0.0044251,0.022126,0.13565,0.42496,-0.60929,-0.16892
0.057832,-0.14542,0.02884,0.046845,0.021515,-0.16434,-2.0806,-0.30381
0.048981,-0.16281,0.0080873,-0.16373,0.11948,-0.23606,-0.39872,-0.1265
0.034943,-0.094759,-0.032807,-0.058442,0.061799,-0.0077821,0.71183,-0.026398
0.010529,-0.075532,-0.013581,0.016632,0.10758,-0.078279,-0.20737,0.0206
-0.015412,-0.02884,-0.13962,-0.12772,0.075837,0.0028992,0.2388,0.0013733
-0.070649,0.02121,-0.11826,-0.062715,0.039521,-0.017243,0.35752,-0.049592
-0.087434,0.031586,-0.12619,-0.08896,-0.0022889,0.016938,0.28153,0.019379
-0.13382,0.10971,-0.16678,-0.20493,0.041657,0.093233,0.1445,0.056001
-0.068208,0.0019837,-0.099641,0.026703,0.02182,-0.049897,-0.33555,0.051118
-0.091096,0.063325,-0.12436,-0.31662,-0.0071717,0.031586,-0.15976,0.06424
-0.099031,0.07187,-0.095369,-0.28946,-0.44511,0.49485,0.21653,0.086519
-0.050507,-0.046845,-0.00076295,0.46281,0.15488,0.1677,0.40757,0.19944
-0.053559,-0.0038148,-0.084077,-0.19059,0.71702,0.44999,0.59617,0.21561
0.00076295,-0.066377,-0.0035096,-0.17197,-0.17777,0.45579,0.56596,0.18021
0.013275,-0.10025,0.018158,-0.051423,-0.8397,0.077058,0.53452,0.048371
0.046235,-0.12985,0.044099,0.042573,0.38712,-0.68925,-0.47288,-0.11704
0.0099184,-0.086519,-0.03006,-0.078279,0.40482,-0.72618,-1.6515,-0.24979
0.052033,-0.13077,0.022431,-0.069123,0.097505,-0.65812,-0.74205,-0.12253
0.066377,-0.12406,-0.0041199,0.031891,-0.309,-0.62333,0.47654,-0.057832
0.052338,-0.10544,-0.015412,-0.08896,-0.20706,0.039521,0.31083,-0.1442
0.020294,-0.062409,-0.072175,-0.14145,0.29313,-0.019379,0.00045777,-0.14786
-0.044404,0.023957,-0.10605,-0.11978,-0.11521,0.25345,0.082856,-0.057832
-0.038911,-0.0099184,-0.11521,-0.066682,-0.24033,0.59556,-0.17868,0.045014
-0.067292,0.019074,-0.14359,-0.05417,0.17227,-0.25101,-0.52445,0.12528
-0.11215,0.07187,-0.14298,-0.086519,0.20676,-0.16495,0.40696,0.14206
-0.0972,0.08011,-0.12558,-0.23972,-0.035859,0.47593,0.76402,0.15854
-0.030365,-0.017548,-0.08011,-0.081331,-0.33188,0.54826,0.45396,0.079805
-0.032502,0.054475,-0.12131,-0.056611,-0.64408,0.2388,-0.27695,-0.0065614
-0.011444,-0.016327,-0.026703,-0.06363,-0.38224,0.059358,-1.4998,-0.099031
-0.081941,-0.0038148,-0.037079,-0.060883,1.2847,-0.94987,-0.074617,-0.05539
-0.087129,-0.070649,0.020294,0.077668,1.6692,-0.30777,0.79667,0.079805
-0.103,-0.044099,-0.044404,-0.24552,0.19699,0.64073,0.41672,0.18906
-0.020905,-0.13779,0.058442,-0.1445,-1.173,0.1799,0.1854,0.15274
0.038911,-0.14389,0.030976,-0.053559,0.74632,0.22019,-0.3093,-0.0206
0.020294,-0.092622,-0.015717,-0.1033,0.14115,0.31052,-0.12192,-0.052033
0.035554,-0.094148,-0.0028992,0.0028992,-0.87236,-0.23209,0.30411,0.019684
0.0047303,-0.056916,-0.056916,-0.029145,-0.92668,0.0077821,0.71214,0.036164
0.0077821,-0.030671,-0.086213,-0.057221,0.26932,-0.22141,-0.23575,-0.13993
-0.0044251,-0.059663,-0.076753,-0.076448,0.3267,0.11307,-1.0832,-0.17411
-0.031891,-0.010529,-0.12711,-0.058442,0.53147,-0.33707,-0.24155,-0.14542
-0.082246,0.076143,-0.1619,-0.074922,0.44724,-0.50401,-1.1321,-0.10239
-0.084993,0.067292,-0.13443,-0.033112,-0.84977,0.37552,-0.41428,0.056611
-0.049592,0.016022,-0.12619,-0.18997,-0.2211,-0.29068,0.79759,0.16403
-0.034638,-0.025483,-0.077363,-0.11185,0.26963,0.12131,0.49454,0.099641
-0.048981,0.00045777,-0.061189,-0.103,-0.09781,0.1503,0.2742,0.0065614
-0.065156,-0.0044251,-0.028229,-0.049287,-0.011139,0.039521,0.24949,0.028229
-0.034333,-0.018158,-0.034638,-0.050202,-0.15274,0.041657,0.08835,0.076143
-0.042573,-0.022431,-0.019074,-0.11063,0.34195,-0.19577,-0.75517,0.013886
0.022126,-0.12589,0.046235,0.0096132,-0.10178,0.58579,0.035248,0.080415
0.029145,-0.121,0.026398,-0.11337,0.044404,0.44175,0.58,0.07187
0.029145,-0.11185,0.022736,-0.024872,-0.73747,0.045319,0.16281,0.041352
0.053864,-0.10269,-0.03006,-0.034333,-0.086824,-0.83848,0.02121,-0.0050355
0.032197,-0.070649,-0.039216,-0.11398,1.3689,-0.6508,-0.22049,-0.13779
-0.010834,-0.066987,-0.047761,-0.086519,0.38224,0.83879,-0.0062562,-0.031586
-0.034943,-0.025788,-0.095064,-0.14878,-0.32731,0.21134,0.11246,0.050507
-0.002594,-0.052338,-0.11612,0.11521,0.66789,-0.35966,0.091402,0.042267
-0.049592,0.030365,-0.14694,-0.11917,-0.059052,0.13535,0.23148,-0.015412
-0.092317,0.067292,-0.12558,-0.15763,-0.033417,-0.11765,0.27329,-0.03769
-0.084993,0.022431,-0.10452,-0.044404,-0.052949,-0.049592,0.13657,0.027314
-0.11032,0.044709,-0.12467,-0.085908,-0.18357,0.02945,0.050507,0.070039
-0.10513,0.036164,-0.121,-0.13962,-0.019379,-0.0074769,-0.04593,0.082551
-0.051118,0.00045777,-0.048066,-0.1326,-0.22751,0.18845,-0.079194,0.059052
-0.037079,-0.024567,-0.030365,0.0019837,-0.16159,0.053559,-0.038911,-0.016327
-0.02884,-0.043488,-0.012665,-0.021515,0.037079,-0.17868,-0.41093,0.016632
-0.011444,-0.12406,0.042573,-0.055695,-0.0071717,-0.031281,-0.61448,0.0013733
0.010834,-0.08896,0.027314,-0.20401,0.023651,0.11582,0.042878,0.090791
0.0096132,-0.078889,0.0096132,-0.011444,0.0047303,0.094453,-0.24125,0.097505
0.041352,-0.13596,0.0074769,-0.095674,0.30533,-0.059052,1.0365,-0.0074769
0.075837,-0.12284,0.0080873,-0.016632,0.10361,0.30198,0.95109,-0.019684
0.032807,-0.072175,-0.04715,-0.02121,-0.54307,-0.24155,-0.24582,-0.17807
0.0041199,-0.027924,-0.098421,-0.17685,-0.43076,-0.14847,-1.7104,-0.2681
-0.054475,-0.0028992,-0.10605,-0.12863,-0.51804,0.69932,-0.21653,-0.065461
-0.029755,-0.025788,-0.1091,-0.011139,0.43778,-0.16922,0.82261,-0.013275
-0.058137,0.054475,-0.14694,-0.089876,1.0033,0.36271,0.45212,0.049287
-0.089876,0.076448,-0.12772,-0.022736,0.39414,-0.24552,0.58366,0.043793
-0.093843,0.057221,-0.15,-0.096895,-1.0811,0.059663,0.31449,0.16922
-0.073396,0.0038148,-0.11765,-0.040742,-0.41489,-0.2446,-0.20951,0.14206
-0.044404,-0.012665,-0.08072,-0.0972,0.16678,-0.57481,0.088045,0.087434
-0.039826,0.031891,-0.043183,-0.23148,0.42161,0.1268,0.39902,-0.032807
-0.069734,-0.052338,-0.0044251,-0.10361,-0.28244,-0.090791,-0.39322,-0.059052
-0.016938,-0.12589,0.057832,0.093233,0.52506,-0.081636,-0.77226,-0.034333
-0.022431,-0.014801,-0.042573,-0.23972,0.10575,-0.013275,-0.06363,-0.01236
0.048066,-0.13535,0.052338,0.00076295,-0.16434,-0.089265,-0.55741,0.045624
0.055695,-0.15,0.0041199,-0.016327,0.23697,0.13687,0.045319,0.036164
0.034028,-0.11093,0.0047303,-0.098726,0.69963,0.43473,0.32578,-0.069123
0.015717,-0.1149,-0.0044251,-0.031586,0.44694,-0.34836,0.34104,-0.055085
-0.0080873,-0.04654,-0.050507,-0.038911,-0.6566,-0.38376,0.36912,-0.027619
-0.044404,-0.0080873,-0.085908,-0.099947,-0.96361,0.54978,0.043183,0.0086976
-0.056611,-0.018769,-0.0972,-0.052644,-0.18112,0.077363,-0.29923,-0.018463
-0.08072,0.040436,-0.1323,-0.079194,0.077668,0.093233,0.12711,0.07126
-0.083772,0.053864,-0.1445,-0.096895,-0.30961,0.3856,-0.043183,0.060273
-0.051118,0.034638,-0.14084,-0.08896,-0.16861,0.14572,0.36271,0.14511
-0.077363,0.013886,-0.066682,-0.075837,0.73747,-0.74022,0.64378,0.072175
-0.081941,0.031281,-0.13382,-0.1619,0.47623,-0.050507,-0.28763,0.051728
-0.063325,0.027619,-0.10697,-0.29343,-0.02121,0.25284,-0.17105,0.18051
0.0013733,-0.059358,-0.0065614,0.33829,-0.30198,0.38682,0.87724,0.11582
0.010834,-0.083467,-0.0065614,-0.22538,-0.012055,0.32273,-0.19211,-0.084993
0.04654,-0.13016,-0.0065614,-0.11643,0.35996,0.018158,-0.71946,-0.055085
0.013581,-0.060883,0.00045777,-0.056306,-0.28611,-0.64927,-1.1476,-0.12924
0.0028992,-0.046235,-0.0068666,-0.063325,0.5745,-0.57877,-1.1046,-0.15671
0.020905,-0.094148,0.015717,-0.079194,1.1437,0.034943,0.4155,0.012665
0.018158,-0.10361,-0.018769,-0.084688,0.13718,0.28641,0.5626,-0.045624
0.035554,-0.099336,0.0019837,-0.033112,-1.3948,0.089876,-0.20829,-0.065461
0.0032044,-0.06363,-0.04654,0.0019837,-0.53178,-0.35935,-0.37827,-0.047761
0.0053407,-0.058137,-0.066072,-0.036469,-0.55436,0.3743,0.38834,0.036164
-0.0053407,-0.040742,-0.12161,-0.075532,-0.3679,0.41337,0.26993,-0.0028992
-0.082246,0.048676,-0.13535,-0.15885,0.83207,-0.10788,-0.069123,-0.08835
-0.1323,0.10758,-0.1445,-0.10941,0.6215,0.06302,0.25223,0.084382
-0.093538,-0.010529,-0.11093,-0.0035096,0.18479,-0.45975,0.51377,0.21805
-0.077974,0.025177,-0.13077,-0.011444,0.19516,0.48203,0.51041,0.15305
-0.087129,0.091707,-0.10758,-0.066377,-0.08072,0.59007,0.33036,0.06302
-0.071565,-0.017548,-0.04593,-0.097505,-0.44755,-0.50767,-0.57267,0.013886
-0.08896,-0.0035096,-0.070039,-0.27237,0.0041199,-0.63066,-0.57176,-0.0053407
-0.061494,-0.034638,0.0065614,-0.22995,-0.20035,0.39414,0.79026,0.12161
0.025788,-0.11765,0.034638,-0.051423,-0.16831,-0.18418,0.20554,0.061494
0.018769,-0.11765,0.032807,0.037079,0.27146,-0.20035,-0.73045,-0.15152
0.0090028,-0.084688,0.010834,-0.040131,0.082246,0.060578,-0.49485,-0.094148
0.048371,-0.12436,-0.00076295,-0.045014,-0.01297,0.066377,-0.58518,-0.030365
0.02121,-0.10178,0.011444,-0.084382,-0.19577,0.3505,0.35996,-0.0053407
0.015412,-0.084077,-0.037995,-0.024567,-0.17868,0.36393,0.98894,0.051423
0.02121,-0.069429,-0.083467,-0.10117,0.23758,-0.14572,0.33707,0.035554
-0.0065614,-0.0038148,-0.12711,-0.061799,0.35966,-0.3267,0.67002,0.13443
-0.026398,-0.0065614,-0.11246,-0.0074769,-0.025483,0.0972,0.26841,0.089876
-0.076753,0.058747,-0.13718,-0.074617,-0.043183,-0.10849,-0.90471,-0.056916
-0.099336,0.066377,-0.11337,-0.1857,0.094759,-0.14359,-0.87053,-0.17075
-0.12558,0.065461,-0.10971,0.0206,-0.23758,0.0090028,-1.2764,-0.21256
-0.046845,-0.00015259,-0.1384,-0.039521,-0.41398,0.10758,-0.41733,-0.041047
-0.036774,-0.012055,-0.056306,-0.19516,0.44266,0.51133,0.61906,0.050202
-0.06363,0.0019837,-0.062715,-0.11276,0.28244,0.34836,0.18143,0.08957
-0.057832,0.021515,-0.01236,-0.075532,-0.049897,-0.309,0.22263,0.17136
0.013581,-0.069429,-0.0022889,0.011749,0.32425,-0.14572,0.82444,0.17929
0.037995,-0.12284,0.017853,-0.14603,0.14847,0.17533,0.52903,0.12711
0.067292,-0.16342,0.034943,-0.043183,-0.51926,0.30472,-0.32822,-0.048676
0.017548,-0.10086,-0.018158,-0.075837,-0.35752,-0.045624,-0.077058,-0.27512
-0.025177,-0.07187,-0.032502,-0.17655,0.60624,-0.70939,-0.29618,-0.17472
-0.044404,-0.041657,-0.033722,-0.056916,-0.30594,-0.3975,-0.46098,-0.0071717
0.012055,-0.11276,-0.018158,0.103,-1.0002,-0.18296,0.12772,0.030365
0.035859,-0.11154,-0.033722,0.031891,0.52354,-0.17624,-0.38682,0.0016785
-0.018769,-0.02945,-0.11246,-0.17166,0.19669,0.28183,0.11856,-0.049897
-0.068208,0.02945,-0.12497,-0.15518,-0.15946,0.52049,-0.29923,-0.055085
-0.067903,0.04715,-0.13474,-0.058442,0.22751,0.37308,-0.23636,0.075227
-0.08957,0.068208,-0.13077,-0.14847,0.67643,0.25772,0.78508,0.16556
-0.089265,0.058137,-0.13138,-0.085603,0.07187,-0.30564,0.69322,0.20798
-0.048371,0.054475,-0.13626,-0.022431,-1.4568,0.98802,0.18235,0.17655
-0.035859,-0.038605,-0.048066,-0.025177,-0.89525,0.50034,0.07187,0.036774
-0.065156,-0.0096132,-0.036469,-0.17868,1.1031,-0.91417,-0.34806,-0.10391
-0.043183,0.0083925,-0.046845,-0.15732,0.81407,-0.83268,-0.27176,-0.0010681
0.0090028,-0.11337,0.037385,0.002594,-0.28702,-0.21225,-0.45396,-0.048676
0.039826,-0.13779,0.036774,-0.087739,0.10575,0.18204,-0.37308,-0.059358
0.073701,-0.13138,0.019684,-0.06424,-0.11734,0.31815,0.57053,-0.020905
0.034943,-0.11612,0.005951,0.14969,-0.066987,0.094759,0.10819,-0.08835
-0.048676,-0.02884,-0.027924,-0.078889,-0.025483,-0.024872,-0.77501,-0.11948
-0.010834,-0.076143,-0.026093,-0.22568,-0.052033,0.10513,-0.18723,0.047761
0.00045777,-0.052338,-0.070344,-0.33127,-0.10575,0.42771,0.75059,0.16403
-0.045014,-0.018769,-0.077974,-0.14054,0.034943,0.23941,0.52659,0.02121
-0.018769,-0.077668,-0.069429,0.31052,0.19425,0.1088,-0.027314,0.009308
-0.05478,0.0080873,-0.1857,-0.023346,0.13657,-0.71336,-0.44327,-0.060578
-0.091707,0.091707,-0.14694,-0.21225,0.21347,-0.28519,-0.51316,-0.11643
-0.10575,0.04654,-0.103,-0.1268,0.075227,-0.040436,-0.18296,-0.0071717
-0.12619,0.062409,-0.12284,-0.058442,-0.1445,0.13535,0.16037,0.11368
-0.10575,0.049592,-0.11948,-0.094453,-0.85801,0.2385,0.32212,0.11063
-0.038911,-0.040131,-0.010529,-0.11582,-0.32364,-0.097505,0.19364,0.088045
-0.00076295,-0.059358,-0.03769,0.055085,0.23331,-0.056611,0.4622,0.13779
-0.033722,-0.0053407,-0.051728,-0.14755,0.36576,0.50919,0.52354,0.093538
-0.0010681,-0.056001,0.013886,-0.18326,-0.099947,0.10513,-0.24033,0.027008
0.06302,-0.14145,0.032197,-0.072786,-0.93248,0.042267,0.12253,-0.05478
0.070344,-0.14817,0.014801,-0.018769,0.21469,-0.069123,-0.26139,-0.12711
0.016938,-0.092927,0.0099184,-0.035248,0.056001,-0.26078,-1.1269,-0.19211
0.019379,-0.091402,-0.023041,-0.048981,0.049592,-0.067597,0.13291,-0.018769
-0.011139,-0.041352,-0.04593,-0.10575,0.98619,-0.033417,0.42557,0.033417
0.0080873,-0.086824,-0.012055,-0.036164,-0.13718,0.10758,-0.077668,0.062409
-0.022431,-0.02182,-0.10483,0.037385,0.02945,0.055085,0.17105,0.086519
-0.031586,0.013886,-0.15,-0.13138,0.1912,-0.099336,0.30411,0.06363
-0.034943,0.0010681,-0.12833,-0.098421,0.017853,0.20859,0.13993,0.0038148
-0.074006,0.025788,-0.12345,-0.22629,-0.0035096,0.5922,-0.12741,0.002594
-0.07187,0.022736,-0.1149,-0.018769,-0.47684,0.38529,-0.52506,0.08957
-0.053559,0.014191,-0.11246,-0.029145,-0.2385,-0.065766,0.58152,0.16251
-0.087129,0.057527,-0.10666,-0.18357,0.48325,-1.4064,0.35111,0.055085
-0.06363,0.017243,-0.07187,-0.056306,0.36606,-0.20584,0.043183,-0.10636
-0.056611,-0.020294,-0.041047,-0.016327,-0.21683,0.80003,0.025483,-0.053559
0.0016785,-0.10208,0.051728,-0.0053407,0.090486,-0.48692,-0.74784,-0.17624
0.0028992,-0.10758,0.026703,-0.17014,0.18875,-0.24857,0.35142,-0.089265
0.002594,-0.10391,0.025788,-0.13748,0.23087,0.34348,0.0038148,0.012055
-0.00045777,-0.095674,0.00045777,-0.04715,0.33158,0.42741,-0.57176,0.073701
0.036164,-0.1088,-0.023957,0.016938,-0.3975,0.54337,1.3527,0.1149
0.058137,-0.14939,0.014191,-0.045319,-0.1796,0.040131,0.35294,-0.015412
0.041352,-0.077668,-0.04593,-0.067292,-1.2236,-0.44236,-1.1189,-0.16312
0.023957,-0.01236,-0.088045,-0.059358,-0.32609,-0.24674,-0.25681,-0.032807
0.0038148,-0.050202,-0.078584,-0.036164,1.3225,-0.121,0.31693,0.041352
-0.056611,-0.014496,-0.11704,-0.071565,0.66697,0.095979,0.22751,0.015412
-0.16007,0.12863,-0.18906,-0.11978,-0.78691,0.57023,0.95079,0.0035096
-0.17655,0.11795,-0.14176,-0.20401,-0.39384,-0.12497,0.2266,0.0010681
-0.13748,0.04593,-0.10086,-0.13352,0.016022,-0.95323,-0.81834,0.063325
-0.12924,0.059663,-0.1149,-0.11704,-0.10208,-0.016022,-0.013275,0.034028
-0.066072,-0.0099184,-0.076143,-0.060883,-0.020294,0.17319,-0.88579,0.030365
-0.029755,-0.034028,-0.030365,-0.10269,-0.27726,-0.030976,-0.29709,0.030976
-0.0086976,-0.050202,-0.0041199,-0.14359,0.30045,-0.17197,0.37247,0.0206
-0.022736,-0.039826,-0.0022889,-0.12802,0.39139,0.07126,0.38651,0.044404
0.016938,-0.12009,0.052949,0.49302,0.54948,0.084688,0.32456,0.0019837
0.01297,-0.10636,0.018463,-0.20768,-0.19669,0.23606,0.35477,0.009308
0.022736,-0.13565,0.018463,-0.2153,-0.1564,0.31418,0.47105,0.12863
0.061494,-0.13993,-0.013886,-0.091402,0.042267,0.009308,0.64866,0.23026
0.047761,-0.094453,-0.042267,-0.067597,0.0080873,-0.44175,0.52445,0.15122
0.036774,-0.062409,-0.064851,-0.08072,-0.62058,0.47135,0.12467,0.0206
-0.0083925,-0.019989,-0.1387,-0.021515,-0.12863,1.9402,0.4683,-0.19242
0.033417,-0.069734,-0.085298,-0.042573,0.79545,0.68833,-0.75669,-0.39719
0.0016785,-0.051423,-0.083162,-0.078279,0.50034,-0.75731,-2.0357,-0.2446
-0.091096,0.08011,-0.15793,-0.10452,0.39811,-1.8169,-0.0050355,-0.06363
-0.087434,0.077974,-0.12833,-0.013581,-0.063935,0.35752,0.50156,0.10483
-0.10056,0.056001,-0.11063,-0.067597,-0.30808,-0.037995,-0.49119,0.0065614
-0.073396,0.011444,-0.10208,-0.18936,-0.26078,-0.041962,0.533,0.084688
-0.074006,0.031891,-0.078279,-0.13321,-0.098421,0.093538,0.62455,0.14633
-0.049592,-0.009308,-0.028229,-0.078584,-0.16648,0.035554,-0.032502,0.10605
-0.022736,-0.078889,0.0080873,-0.05478,0.0035096,0.052338,0.22416,0.078279
0.002594,-0.080415,0.044099,0.02884,0.10636,-0.076448,-0.24552,0.0032044
0.037995,-0.1149,-0.0086976,-0.12161,0.19638,-0.1912,-1.0353,-0.00045777
0.057221,-0.13565,0.0013733,-0.18967,-0.34623,0.065766,-0.16831,0.0068666
0.024872,-0.088045,-0.013886,-0.030976,-0.57237,0.27756,0.52354,0.013275
-0.0028992,-0.121,-0.0099184,0.057527,0.74846,0.29435,0.29618,-0.040436
0.00045777,-0.061799,-0.019074,-0.14267,-0.024567,0.81163,0.2562,-0.011444
-0.00045777,-0.061494,-0.059358,-0.10452,-0.53971,0.065766,0.29892,0.0032044
-0.016938,-0.027619,-0.098726,-0.027008,0.21103,-0.40269,0.1088,-0.002594
-0.08957,0.026398,-0.11948,-0.035554,-0.085908,-0.56931,-0.42832,-0.025177
-0.11307,0.061799,-0.13474,0.0038148,0.37522,-0.84672,-0.29679,-0.030365
-0.10758,0.058747,-0.17136,-0.16312,0.45945,0.064546,0.062409,0.0068666
-0.13382,0.055695,-0.14145,-0.17075,0.14054,0.19913,0.093538,0.1326
-0.062104,0.0096132,-0.086213,-0.17288,0.16892,0.24033,0.53025,0.16495
-0.083162,0.051423,-0.082551,-0.076448,0.11856,0.073091,0.20645,0.019074
-0.087434,0.026703,-0.048371,0.056001,-0.49271,0.12528,0.019989,-0.061189
-0.022126,-0.071565,-0.034028,-0.17594,-0.98405,0.27604,-0.95048,-0.043793
0.0019837,-0.095979,0.0080873,-0.13931,0.14084,-0.46189,-1.2239,-0.061189
0.086213,-0.17777,0.075837,0.1033,0.45609,-0.18814,0.0013733,0.0099184
0.036774,-0.086824,-0.018158,-0.03769,-0.018158,0.30869,0.69444,0.11856
0.013275,-0.082856,0.016327,-0.11337,0.11246,-0.034333,0.34195,0.03769
0.038911,-0.10697,0.0053407,-0.051423,-0.024567,0.20462,0.38041,0.052033
-0.0086976,-0.026093,-0.04715,-0.18082,0.1323,0.079194,-0.17685,-0.051118
-0.0035096,-0.075532,-0.027619,-0.1912,-0.059968,0.16495,-0.18936,-0.065461
-0.00045777,-0.065461,-0.039826,0.044709,-0.45701,0.10239,0.31266,-0.016938
-0.028229,-0.030671,-0.12253,-0.016327,0.02884,-0.22904,0.56657,0.096895
-0.057221,0.03006,-0.15244,-0.050202,0.31327,-0.092012,0.63157,0.15335
-0.056001,0.017548,-0.13565,-0.045319,0.098726,-0.12894,0.57328,0.018769
-0.085603,0.068513,-0.13931,-0.18601,0.01297,0.42527,0.19181,-0.089876
-0.075532,0.044404,-0.10819,-0.10575,0.39506,0.57755,-1.1379,-0.098116
-0.082856,0.015412,-0.093233,-0.047456,0.48295,0.21561,-1.5276,-0.034943
-0.067292,0.026703,-0.074922,-0.044404,0.027924,-0.18418,0.58976,0.05417
-0.020905,-0.0077821,-0.032502,-0.050507,-1.0521,-0.73411,0.40757,0.063325
0.017243,-0.075837,-0.0090028,-0.040436,-0.71855,-0.56535,0.14664,-0.0035096
0.012665,-0.088655,-0.014801,-0.075837,0.02945,-0.6627,-0.068208,0.0074769
0.017853,-0.10391,0.0038148,-0.14542,0.10025,0.32334,-0.72923,-0.038911
0.028229,-0.091707,0.026703,-0.035554,0.49302,0.59159,0.023346,-0.025788
0.033417,-0.13199,0.024872,0.031891,-0.11948,0.64805,0.017548,-0.020294
0.077974,-0.15366,-0.005951,-0.16251,-0.1796,-0.08835,0.24002,0.0028992
-0.009308,-0.069429,-0.033722,-0.034333,0.68254,-1.5209,-0.18601,-0.065766
-0.073701,-0.0077821,-0.060883,-0.0019837,0.31479,-0.36179,0.41245,0.10636
-0.016632,-0.069429,-0.06302,-0.11246,-0.42252,0.76707,1.3228,0.40177
-0.069429,-0.0077821,-0.12833,-0.20127,-0.21195,0.2797,1.4876,0.35172
-0.050507,0.019989,-0.13657,-0.058747,0.15457,0.49271,1.6814,0.02884
-0.069734,0.053864,-0.12955,-0.023651,-0.21653,0.15885,0.48417,-0.35538
-0.10605,0.064546,-0.14969,-0.090486,0.29221,-0.51926,-0.93736,-0.5095
-0.030671,-0.014191,-0.11124,-0.0090028,1.006,-0.36088,-2.4712,-0.34928
-0.067597,0.079194,-0.103,-0.16983,-0.0010681,-0.095369,-3.211,-0.24308
-0.061189,0.0071717,-0.060273,-0.17014,-0.60624,0.33799,-1.227,0.098116
-0.0090028,-0.048066,-0.038911,-0.019379,-0.39597,0.35874,0.21378,0.30045
0.00045777,-0.066377,-0.0077821,0.00045777,0.32486,0.23514,1.4253,0.1442
-0.015717,-0.090791,0.0032044,-0.090791,-0.55924,0.45335,0.80644,0.073701
-0.0044251,-0.10269,0.03006,-0.08957,0.0050355,-0.6273,-0.35264,0.094453
0.035859,-0.099641,0.034028,-0.081636,0.26535,-0.29191,-0.30137,-0.0056458
0.029145,-0.11337,0.024262,-0.010224,-0.2916,0.74632,0.48783,-0.010529
0.036164,-0.08072,-0.028229,-0.11734,0.70787,-0.37034,-0.58,-0.11521
-0.02121,-0.070039,-0.051728,-0.34623,-0.11856,-0.52049,-0.99443,-0.079194
-0.057832,-0.019684,-0.081025,-0.13443,0.043488,0.12558,0.97581,0.045624
-0.041047,-0.018463,-0.097505,0.25345,-0.13413,0.66056,1.0811,0.14237
-0.044404,-0.023346,-0.070039,-0.10941,0.015106,-0.0047303,0.95933,0.11795
-0.024262,0.0047303,-0.12222,0.025177,0.11093,-0.017548,0.81865,0.084077
-0.089265,0.035248,-0.1146,0.14969,0.29221,-0.0096132,0.21958,-0.034943
-0.097505,0.088655,-0.2089,-0.20798,0.262,-0.12161,-1.1458,-0.068818
-0.070039,-0.0013733,-0.085908,-0.2153,0.10056,-0.74144,-1.8325,0.11765
-0.086213,0.04593,-0.092622,-0.18784,-0.63157,0.1149,0.34501,0.11612
-0.087129,0.024567,-0.056306,-0.24002,-0.5864,0.30655,0.68101,-0.0086976
-0.052949,-0.021515,-0.031891,-0.12741,0.014801,-0.14694,-0.6981,-0.0053407
-0.0041199,-0.084382,0.024262,0.079805,-0.072786,0.036469,-0.19333,0.078584
0.04715,-0.12741,0.023651,-0.01236,-0.29587,0.6041,1.2108,0.093538
0.060578,-0.14817,0.0056458,-0.1796,-0.30961,0.41733,0.486,0.031891
0.048371,-0.10575,0.0019837,-0.092317,0.16312,-0.18662,-0.015717,-0.082856
-0.014496,-0.067903,0.0099184,-0.079805,0.96544,-0.97124,-0.9984,-0.12955
0.018769,-0.121,0.0056458,0.062104,0.079805,0.0010681,-0.10422,-0.015717
0.042878,-0.11246,-0.013581,0.0077821,-0.11612,0.24216,0.59617,0.04715
-0.012665,-0.044404,-0.092927,-0.073701,0.67521,-0.044404,0.1912,-0.011444
-0.050813,0.0056458,-0.12985,-0.10086,0.29129,-0.042267,0.16159,0.011139
-0.067903,0.030671,-0.14481,-0.103,-0.42802,0.047456,0.2031,0.15854
-0.062104,0.057527,-0.14725,-0.044099,-0.12772,-0.013275,0.12985,0.10361
-0.086824,0.036164,-0.10727,-0.026093,0.53117,0.16098,0.58671,0.043793
-0.042878,-0.01236,-0.10666,-0.065156,-0.0083925,0.96757,0.73381,0.002594
-0.058747,0.041352,-0.15305,-0.168,-0.64988,0.84977,-0.090181,-0.062715
-0.077363,0.067903,-0.10269,-0.18112,0.051728,-0.52018,-1.1128,-0.17411
-0.057832,-0.01297,-0.0035096,-0.01297,0.019684,-1.368,-1.4412,-0.14694
-0.031586,-0.017853,-0.025483,-0.023346,-0.11856,0.16953,-0.60624,-0.075837
0.023041,-0.1326,0.029755,-0.10575,-0.35538,0.12497,0.093843,-0.0090028
0.050202,-0.14603,0.024262,-0.077363,-0.17655,-0.086213,0.31601,0.03006
0.011139,-0.087434,0.019379,-0.058747,0.89952,-0.27665,0.31785,0.065766
-0.012665,-0.085603,-0.0028992,-0.03769,0.78691,0.20249,0.46098,0.06302
-0.041047,-0.076753,-0.022431,-0.18875,-0.12985,0.14115,0.57084,0.10391
0.02884,-0.10849,0.002594,-0.077058,-1.0668,0.29648,0.92576,0.16892
0.023957,-0.074922,-0.052033,-0.065156,-0.23331,0.077363,1.1235,0.0795
-0.038911,-0.032197,-0.08957,-0.055695,0.45975,0.21134,0.67094,-0.1561
-0.073396,0.015106,-0.1265,-0.10758,-0.19852,0.51499,-0.46952,-0.1973
-0.056001,-0.005951,-0.12314,-0.058137,0.12985,0.073701,-1.9582,-0.16068
-0.035248,0.0065614,-0.13901,0.0206,0.74022,-0.27512,-1.1586,-0.053864
-0.092927,0.092622,-0.17594,-0.1033,-0.30869,0.059052,-0.52567,0.061494
-0.10513,0.083467,-0.1149,-0.18143,-0.82017,-0.68742,0.38468,0.12161
-0.10849,0.03769,-0.085298,-0.069429,0.17075,-0.056611,0.89158,0.078584
-0.066987,-0.00015259,-0.048981,-0.10575,0.078279,-0.73594,-0.11002,0.039216
-0.050813,-0.028229,-0.02884,-0.23178,-0.046845,-0.03006,-0.66026,0.019074
-0.029145,-0.033417,0.0044251,0.075227,-0.17624,0.30076,0.31846,0.068208
0.037079,-0.15763,0.034028,0.18112,-0.25345,0.018158,0.33127,0.077668
0.053559,-0.12222,0.0035096,-0.22995,0.48692,0.29709,0.43351,0.02945
0.011139,-0.082551,0.010224,-0.14542,1.0146,0.095369,0.34592,0.022736
0.015717,-0.10361,0.0053407,-0.094759,0.10819,0.26139,0.24277,0.043793
0.038911,-0.11398,-0.0028992,0.0050355,-0.93584,0.081331,0.21347,0.069123
0.047761,-0.10971,-0.044099,-0.0041199,0.83879,-0.38132,-0.11185,-0.0050355
-0.02121,-0.063935,-0.056611,-0.10056,0.59464,-0.098116,0.069734,-0.10849
-0.073701,0.022126,-0.12222,-0.1268,-0.89342,0.40085,-0.079194,-0.057832
-0.066987,0.016327,-0.10849,0.023651,-0.5861,-0.35996,-0.87663,0.019074
-0.068818,0.016632,-0.12253,-0.064851,0.68681,-0.11643,0.49149,0.16068
-0.039826,-0.010529,-0.15579,-0.18265,0.2562,0.33249,0.92546,0.13443
-0.035554,0.015717,-0.12741,-0.093233,-0.67002,0.47807,0.59098,0.041352
-0.076753,0.058137,-0.10941,-0.040131,0.033722,0.2266,-0.16037,-0.20798
-0.077668,0.042573,-0.095979,-0.082246,0.24521,-0.021515,-1.6182,-0.14206
-0.07187,0.033417,-0.043793,-0.13046,0.0383,-0.2327,-0.90135,0.0077821
-0.061494,-0.03769,0.0206,-0.066682,0.15427,-1.512,0.26993,0.010529
-0.034943,-0.037995,-0.020294,-0.17594,0.067903,-0.45243,0.7689,0.1091
0.0050355,-0.10025,-0.0038148,-0.0096132,-0.40909,0.87144,0.94896,0.15122
0.06302,-0.15549,0.0074769,-0.018158,-0.46159,0.50584,0.29831,0.079194
0.019989,-0.081636,0.016632,-0.14755,0.49729,-0.2034,-0.74235,-0.095674
0.040436,-0.11765,0.0016785,-0.053559,0.45914,0.034943,0.78904,0.0047303
0.045319,-0.1146,0.018158,-0.042573,0.016022,0.48325,0.56718,-0.035248
-0.023651,-0.01297,-0.099641,-0.13993,0.35782,-0.48997,-0.83482,-0.21073
0.019379,-0.10544,-0.024872,0.0090028,-0.31296,0.33524,-2.1608,-0.14572
0.0071717,-0.044099,-0.1088,-0.016022,-0.15152,0.46921,-0.062104,-0.015717
-0.10147,0.062409,-0.14939,0.047456,0.0383,0.21714,1.4134,0.047761
-0.079194,0.0206,-0.11948,-0.092927,0.0050355,-0.33921,0.40238,0.14115
-0.10941,0.099641,-0.15061,-0.27176,0.017853,-0.75975,-0.0053407,0.13443
-0.08835,0.059968,-0.10666,-0.17197,0.050507,0.075837,-0.58488,0.049287
-0.051728,-0.016022,-0.11826,-0.042878,-0.10758,0.17136,-0.16281,0.078279
-0.061189,0.02945,-0.10697,-0.091402,-0.025483,0.0795,0.6334,0.090486
-0.0053407,-0.046235,-0.017548,-0.040131,0.11948,0.059052,0.33524,0.13596
0.0010681,-0.070649,0.016022,-0.075532,0.14908,-0.063325,0.1088,0.039216
-0.044404,-0.081331,0.030671,-0.078584,-0.069734,0.07126,-0.037385,-0.12131
-0.027008,-0.085908,0.0041199,-0.055085,-0.68223,0.4979,-0.33982,-0.11704
0.035859,-0.099641,0.00045777,-0.12131,-0.5565,0.46677,-0.2504,0.022736
0.065766,-0.13565,0.0035096,0.056611,-0.10819,-0.40543,0.17441,0.06363
-0.0096132,-0.066072,-0.01236,-0.103,0.75334,-1.0777,-0.22477,-0.15549
-0.035554,-0.091402,0.010529,-0.074311,0.1149,0.22751,-0.18479,-0.12955
0.016632,-0.088655,-0.056306,-0.053254,0.32761,0.25803,0.36088,0.10452
0.023346,-0.034333,-0.10605,-0.045014,0.23728,-0.019074,0.40696,0.1445
0.00076295,-0.044404,-0.081941,0.018463,-0.032197,0.056306,0.34379,-0.053864
-0.051118,0.089265,-0.17563,-0.16678,0.41154,-0.20829,-0.051118,-0.14328
-0.049287,-0.027619,-0.11276,-0.11521,0.044404,-0.26932,-0.93736,-0.14481
-0.10605,0.08011,-0.14847,-0.13535,-0.45914,0.15793,-0.0206,-0.018463
-0.092317,0.04654,-0.084382,-0.0035096,-0.36057,0.66911,0.42466,0.16678
-0.096284,0.043488,-0.13718,-0.19883,-0.26383,0.42039,-0.64347,0.11032
-0.077058,0.0065614,-0.050813,-0.15061,0.24582,-0.059968,-0.46586,0.10086
-0.08072,-0.018769,-0.027924,-0.043183,0.56199,-0.6569,0.14725,0.094453
-0.039521,-0.042878,-0.014801,0.017548,-0.5864,-0.30137,0.58976,0.21714
0.055695,-0.11826,0.010529,-0.0080873,0.12009,-0.15244,1.0292,0.1857
0.062409,-0.092317,0.032502,-0.095674,0.098421,0.25895,0.79698,0.015412
-0.012055,-0.086213,0.034638,0.055085,-0.10513,0.4329,0.27268,-0.19852
0.035554,-0.15793,-0.0077821,-0.027619,0.76677,-0.2031,-0.9987,-0.23056
-0.011444,-0.052644,-0.028229,-0.35599,1.216,-0.28733,-1.852,-0.15946
-0.013275,-0.062715,-0.056916,-0.23758,0.19974,-0.22599,-0.47044,-0.038911
0.0047303,-0.10147,-0.016327,0.073396,-1.3198,0.61814,0.71733,0.14206
-0.040436,-0.046235,-0.077058,0.11978,-0.92058,0.44388,0.61326,0.078279
-0.10391,0.070039,-0.19181,-0.31724,0.027314,0.22812,0.2153,0.031891
-0.033112,0.0044251,-0.1091,-0.083162,-0.50065,-0.11612,0.023041,-0.010529
-0.029145,0.021515,-0.14633,0.030976,0.47715,-0.6508,0.34867,0.025177
-0.090791,0.074311,-0.12833,-0.12955,0.3679,-0.19608,0.5211,-0.019684
-0.095064,0.015717,-0.10819,-0.024872,-0.50278,-0.15518,-0.3743,0.034943
-0.035859,0.016022,-0.0972,-0.062715,-0.3151,0.53239,0.18509,0.12528
-0.067597,0.033722,-0.04715,-0.17197,-0.48661,-0.0071717,0.8632,0.048371
-0.016327,-0.052338,-0.010834,-0.087739,0.15946,-0.07248,-0.36851,-0.054475
0.012665,-0.086519,0.010834,0.026093,-0.34012,0.30472,-0.92302,-0.062104
-0.0080873,-0.059968,0.010224,-0.023346,1.0228,-1.0658,-1.6176,-0.12528
0.023651,-0.14206,0.060273,-0.08835,0.95689,-0.99168,-0.90501,-0.025788
0.053864,-0.15763,0.0041199,-0.035248,-0.3212,1.1843,0.87633,0.053254
0.016938,-0.097505,-0.0383,-0.036164,-0.44022,0.61753,0.45029,-0.046845
-0.054475,0.0041199,-0.058137,-0.37583,-0.36942,0.59648,0.14328,-0.075227
-0.027008,-0.074311,-0.0053407,0.066072,0.015717,0.29465,0.37461,0.15854
-0.010834,-0.082551,-0.048371,0.19425,1.0631,0.054475,1.0304,0.15488
-0.022126,-0.018463,-0.15,-0.14694,1.1083,-0.23453,0.84764,-0.057221
-0.024872,0.015106,-0.11246,-0.29435,-0.31357,0.35508,-0.27878,-0.087739
-0.0383,0.0071717,-0.14328,-0.03006,-0.87633,-0.65263,-1.7699,-0.077668
-0.077058,0.028229,-0.11978,-0.096284,0.52842,-1.1519,-1.3686,-0.026398
-0.12833,0.070344,-0.13138,-0.103,0.33829,0.66087,0.54032,0.15152
-0.1146,0.051423,-0.12467,-0.103,-0.22538,0.32486,0.93675,0.25132
-0.060883,0.0041199,-0.07248,-0.055085,-0.31815,0.022126,0.65995,0.17655
-0.02884,-0.023346,-0.025483,-0.048981,-0.37156,0.066377,-0.048981,0.046235
0.00045777,-0.095369,-0.022736,-0.010529,-0.033417,0.094453,-0.69169,-0.085908
-0.014191,-0.014496,-0.016938,-0.14725,0.0383,0.38132,0.22416,-0.11429
-0.00015259,-0.11765,0.10422,-0.036469,0.17502,0.17105,-0.24521,-0.081331
0.065461,-0.1564,0.0019837,0.022126,0.16892,0.49363,-0.14755,-0.0096132
0.063325,-0.067903,-0.027619,-0.078584,-0.082246,-0.55741,0.2501,0.013886
0.011444,-0.10361,-0.0035096,0.0053407,-0.26139,-0.62791,0.18753,-0.013581
0.025177,-0.11948,-0.01236,-0.019074,0.38437,0.22446,0.15244,0.014191
-0.0065614,-0.051423,-0.076753,-0.30747,0.43656,0.066377,0.31174,0.031281
-0.0028992,-0.064851,-0.082246,-0.085298,-0.11154,0.22385,0.17624,-0.0083925
-0.027008,-0.015412,-0.1033,-0.062409,0.016938,0.13169,-0.45243,-0.099031
-0.081331,0.044099,-0.14267,-0.11521,-0.15488,0.28794,-0.13596,-0.044404
-0.088045,0.058747,-0.12741,-0.046845,-0.43717,-0.013581,0.10178,0.15671
-0.04654,0.0099184,-0.10727,0.027619,0.035554,-0.24674,0.22965,0.15702
-0.095064,0.070649,-0.1384,-0.13077,-0.14481,-0.50462,0.27726,0.083467
-0.12833,0.090486,-0.12345,-0.24491,-0.093538,-0.40238,0.40848,0.033722
-0.08072,-0.0099184,-0.061799,-0.059052,0.0383,0.53025,0.35019,0.083772
0.0056458,-0.095979,-0.016327,0.028534,-0.13565,0.48722,-0.75242,-0.077363
0.03006,-0.070344,-0.0086976,-0.044099,-0.25772,0.10605,-1.3149,-0.26749
-0.022736,-0.025483,0.036164,-0.048676,-0.28611,-0.21225,0.2504,-0.075227
-0.025483,-0.047761,0.027619,-0.11063,1.1156,-0.62943,0.67399,0.14481
0.031281,-0.13993,0.030671,0.0065614,0.84642,-0.031586,0.76585,0.16709
0.030365,-0.090791,-0.034028,-0.12345,0.88548,-0.017853,0.6334,0.058137
0.031586,-0.11887,-0.02182,-0.061799,-0.49302,0.35904,-0.64622,-0.066682
0.052338,-0.15152,-0.034638,-0.02121,-1.6048,0.84337,-0.3679,-0.068208
0.012055,-0.030365,-0.082551,0.0053407,-0.25528,-0.17655,0.70176,-0.044404
-0.057221,-0.0019837,-0.10636,-0.25559,0.28214,-0.8986,-0.52811,-0.20401
-0.078279,0.011444,-0.12558,-0.2562,-0.13596,0.044404,-1.2703,-0.091707
-0.058137,0.01236,-0.13474,-0.086824,0.13169,0.082551,-0.70115,0.026093
-0.059968,0.032197,-0.11551,-0.0090028,0.28519,-0.13138,0.5034,0.12161
-0.14084,0.065156,-0.095979,-0.014191,-0.032197,0.13107,0.5098,0.064546
-0.078889,0.033112,-0.11765,-0.039216,-0.018158,0.14572,0.42344,0.1088
-0.039216,0.033722,-0.11093,-0.11673,0.077668,0.021515,0.4686,0.10361
-0.019684,-0.034028,-0.070039,-0.21317,0.24582,-0.081331,-0.25254,0.016938
-0.0028992,-0.079805,-0.0090028,0.066072,0.23514,-0.098116,-0.75456,-0.0086976
-0.027314,-0.072175,0.024262,-0.23941,0.055695,0.075227,0.38132,0.034028
-0.015717,-0.092317,0.028534,0.103,-0.55375,0.47929,0.32914,0.024262
0.019074,-0.060883,-0.0077821,0.13748,-0.19394,0.36759,0.40574,0.10819
-0.019379,-0.062104,0.0099184,-0.052949,0.55955,-0.33677,0.58976,0.12711
0.027924,-0.17014,0.0019837,-0.058442,-0.21469,0.054475,0.0071717,0.066682
0.026703,-0.093843,-0.03006,-0.14908,-1.1214,0.89036,0.0086976,-0.092927
0.043793,-0.088045,-0.0086976,-0.15793,0.52781,-0.22721,0.18631,-0.19669
-0.0090028,-0.034638,-0.075227,-0.075532,1.0652,-1.2477,-0.52995,-0.13077
-0.02884,-0.011749,-0.1149,-0.069123,-0.26078,0.62242,-1.9225,-0.12619
-0.053864,0.028534,-0.14298,-0.019074,-0.084993,0.14084,-0.53452,-0.04715
-0.059968,0.027924,-0.13046,-0.066987,-0.28183,-0.52049,0.78874,0.041352
-0.066072,0.028534,-0.12833,-0.13443,0.19974,-0.065461,0.10971,0.040131
-0.081636,0.041962,-0.11368,-0.18173,0.048371,0.33066,-0.087739,0.083467
-0.089876,0.02121,-0.10727,-0.10513,-0.421,0.56016,0.22171,0.09659
-0.083162,0.048676,-0.083467,-0.11337,-0.13931,0.15946,0.30167,0.11276
-0.045624,0.0056458,-0.031586,-0.087434,-0.14481,0.089876,0.23362,0.11887
0.0038148,-0.10941,0.020905,0.0096132,0.035554,0.049592,0.26963,0.11856
-0.002594,-0.069429,0.0206,-0.024262,0.32761,-0.39231,0.54978,0.099031
0.0050355,-0.07187,0.0062562,-0.03769,0.41489,0.10513,0.8159,0.076753
0.06302,-0.1323,-0.0080873,-0.093233,0.2089,0.52201,0.8864,0.051423
0.027314,-0.072175,-0.002594,-0.11032,-0.56352,0.11734,0.51774,-0.10117
-0.023041,-0.050813,-0.0090028,-0.10758,-0.93217,-0.34745,-0.69474,-0.22049
0.0013733,-0.1088,-0.00045777,-0.018769,-0.14176,-0.030976,-1.8322,-0.082246
0.031281,-0.1268,-0.032502,-0.11643,0.24552,-0.082246,0.1326,0.0099184
0.020905,-0.068208,-0.093233,-0.058137,0.23301,-1.1302,-0.037079,-0.057221
-0.061799,0.023651,-0.13993,-0.086824,-0.043183,-0.14054,-0.25376,-0.11612
-0.074617,0.061189,-0.15396,-0.027314,0.060578,0.56962,-0.43503,-0.10636
-0.1207,0.079805,-0.14908,-0.13962,1.5068,0.43503,0.17868,0.032807
-0.10178,0.018463,-0.12222,-0.013275,0.63554,0.03006,0.5861,0.17624
-0.056001,0.0013733,-0.10056,0.023957,-0.72129,0.26078,0.71794,0.30777
-0.0032044,-0.013581,-0.082856,-0.041352,0.086519,-0.27451,0.21958,0.14267
-0.0074769,-0.020294,-0.057832,-0.2388,0.069123,-0.43198,-0.29038,-0.088045
-0.051728,-0.0080873,-0.024567,-0.091707,0.037995,-0.17929,-0.39872,-0.19394
-0.054475,0.014496,-0.0022889,-0.086824,-0.11154,-0.08957,-0.39261,0.00076295
0.025177,-0.11978,0.042878,0.032807,-0.038911,-0.068208,-0.31388,0.047456
0.043183,-0.12375,-0.022431,-0.065156,-0.053254,0.016938,0.039216,0.062409
-0.040742,-0.032807,-0.0028992,-0.22019,-0.014801,0.062409,0.49638,0.10361
-0.040742,-0.070954,0.022126,-0.11093,0.15427,0.27878,0.6157,0.030365
0.019074,-0.15152,0.03769,0.056611,-0.087739,0.33738,0.60136,0.011749
-0.018158,-0.068208,-0.030365,-0.037079,0.047456,0.11124,0.21347,-0.18235
-0.039216,-0.036164,-0.084688,-0.056306,-0.015717,0.35386,-0.18326,-0.1564
0.0086976,-0.089876,-0.085298,-0.067292,0.70695,-0.3798,0.03769,0.031891
-0.016327,0.002594,-0.13901,-0.076448,-0.069429,0.15702,-0.28794,0.013886
-0.084077,0.04654,-0.16739,-0.051423,-1.5462,-0.28244,-0.49485,-0.095979
-0.09781,0.066682,-0.14328,-0.068513,-0.56046,-0.43961,-1.3414,-0.11948
-0.081941,0.02945,-0.1088,-0.1561,0.60899,0.26963,-0.58305,0.041962
-0.076143,0.013275,-0.10269,-0.096284,0.64927,0.21927,0.52964,0.2739
-0.08957,0.055085,-0.098421,-0.061799,-0.077363,0.19913,0.79332,0.32029
-0.066072,0.0065614,-0.041962,-0.1619,0.067292,-0.17014,0.62272,0.23728
-0.04593,-0.03769,-0.023041,-0.11673,-0.010834,-0.77195,0.13809,0.050507
-0.0019837,-0.084077,-0.0053407,-0.072175,-0.16434,0.046845,-0.60838,-0.15549
0.013275,-0.08072,0.010834,-0.077058,0.19272,0.091707,-0.55192,-0.11826
0.025483,-0.08835,-0.00045777,-0.077363,-0.4445,0.29496,0.075837,-0.093233
0.062104,-0.12253,0.019989,-0.0206,-0.26505,0.5095,0.4686,0.036164
0.061189,-0.12192,-0.0041199,0.041047,0.35294,-0.16648,-0.51621,-0.027008
0.069734,-0.12802,0.032197,-0.084382,0.4509,-0.23484,-0.17838,-0.068818
0.074006,-0.1384,0.0016785,-0.019684,0.24338,-0.2855,0.1326,-0.103
-0.011139,-0.027314,-0.087129,-0.038605,-0.26108,-0.30564,-0.20676,-0.16617
-0.073091,0.037995,-0.1091,-0.19821,-0.22843,0.62486,0.43717,-0.06363
-0.087129,0.028229,-0.12985,-0.121,0.27115,-0.0099184,0.68467,0.13687
-0.087739,0.047456,-0.17197,-0.065766,0.63706,-0.04593,0.76005,0.19425
-0.093538,0.062715,-0.14176,-0.17533,-0.24887,1.1528,0.7631,0.14542
-0.024567,-0.022126,-0.11643,0.0077821,-1.1046,0.08896,0.0041199,0.0206
-0.060578,0.049897,-0.14328,-0.10361,-0.23667,-1.339,-1.4171,-0.15061
-0.10025,0.040436,-0.053254,-0.052949,0.68345,-0.52628,-1.8846,-0.14206
-0.050507,-0.033722,-0.0065614,-0.023346,-0.079194,0.88609,0.25528,0.11887
0.0053407,-0.093843,-0.0056458,-0.068818,-0.56107,0.31113,0.53819,0.10422
-0.013275,-0.059663,0.0032044,-0.12253,0.34012,-0.24033,0.02121,0.014801
-0.022126,-0.056611,-0.0056458,-0.13352,0.95018,-0.20676,0.27024,0.056001
-0.021515,-0.072786,0.018463,-0.032502,-0.019074,0.67033,0.41398,0.11398
0.00045777,-0.11765,0.031586,-0.005951,0.075532,-0.17166,0.041962,0.040131
-0.00045777,-0.12802,0.0053407,-0.075532,-0.10697,-0.92668,0.24277,0.013581
0.015412,-0.10269,-0.013581,-0.093843,-0.11002,0.15335,0.56535,0.013886
0.012055,-0.084382,-0.063325,-0.022736,0.023651,0.078889,0.25803,-0.036774
-0.029145,-0.009308,-0.12222,-0.0083925,0.24918,-0.27909,-0.81895,-0.12467
-0.043488,0.026398,-0.10727,-0.19486,-0.076753,0.18509,-0.78233,-0.089876
-0.049897,0.0077821,-0.12833,-0.057221,-0.26535,0.48966,0.10391,-0.034943
-0.049897,0.035859,-0.15732,-0.08896,0.52598,-0.034943,0.3444,0.031586
-0.041962,0.030671,-0.1326,-0.061799,-0.30381,0.31601,0.69749,0.090791
0.015106,-0.032197,-0.065156,-0.082856,-1.4092,0.53788,0.52293,0.13931
-0.039216,0.013275,-0.103,-0.068513,-0.59068,-0.019684,-0.044709,0.056001
-0.087434,0.0099184,-0.073396,-0.091707,1.0179,-0.089265,-1.1269,-0.0056458
-0.093843,-0.0044251,-0.050813,-0.14755,0.43046,-0.45792,0.081331,0.12253
-0.11521,0.02182,-0.023957,-0.13046,-0.83391,-0.65965,1.0793,0.086519
-0.060578,-0.034333,0.036774,-0.059663,0.33341,0.40757,0.34836,0.045624
0.020905,-0.13962,0.062715,0.12802,0.32059,-0.12955,-0.79881,-0.011444
0.055695,-0.168,0.0062562,-0.20554,0.24704,0.13596,-0.53513,-0.02121
0.034333,-0.098726,-0.0077821,-0.013581,0.37644,0.13077,0.20981,-0.091096
0.085603,-0.11032,-0.0086976,-0.094453,0.14267,-0.32578,0.40635,-0.12253
0.056306,-0.12039,-0.019684,-0.07248,0.11246,-0.19944,-0.74388,-0.19059
-0.019684,-0.04593,-0.070954,-0.013275,-0.39597,-0.12192,-1.9503,-0.22568
-0.067292,0.027924,-0.11124,-0.15091,0.12222,0.1796,-0.31754,-0.041657
-0.018158,-0.028229,-0.1268,-0.053254,0.22324,0.1973,1.0475,0.15732
-0.10056,0.087129,-0.15457,-0.039521,-0.38743,0.28367,0.916,0.16648
-0.076143,0.015717,-0.13352,-0.037385,-0.64561,-0.051118,0.72679,0.25528
-0.044709,0.0071717,-0.12467,-0.10697,0.28214,-0.31388,0.70756,0.2327
-0.039826,0.017853,-0.08072,-0.17716,0.21317,0.19242,-0.36027,-0.091707
-0.074006,0.033722,-0.06424,-0.077668,0.016938,0.33005,-1.3521,-0.23758
-0.057527,0.02121,-0.070039,-0.121,0.1442,0.22721,0.2855,-0.027314
-0.042878,-0.030671,-0.044709,-0.14939,0.5507,-0.4979,0.048371,0.059663
-0.011444,-0.066377,0.0099184,-0.043183,0.046845,-1.2053,0.19059,0.039826
0.017548,-0.08835,0.024567,0.081331,-0.94499,0.58,0.44816,0.016938
0.037995,-0.12436,0.009308,0.13748,-0.91051,1.3024,0.085298,-0.045014
0.059968,-0.13291,0.041047,-0.18875,-0.41825,0.33249,0.30228,0.016022
0.024872,-0.098726,-0.0096132,-0.11368,0.5803,-0.89891,-0.50278,-0.012055
-0.015412,-0.071565,-0.026093,-0.0022889,0.934,-1.017,-0.33829,0.019684
-0.041047,-0.050507,-0.069429,-0.23911,0.68772,-0.24826,0.061189,0.02182
-0.059052,0.0010681,-0.083467,-0.21225,-0.5095,0.9984,-0.17624,-0.072175
-0.059663,-0.016022,-0.075837,-0.017548,-0.5211,0.13779,-0.56779,-0.1387
-0.0062562,-0.032502,-0.11429,0.040131,-0.14359,0.27573,-0.33463,-0.0050355
-0.075532,0.059663,-0.12253,-0.036164,0.14817,0.48264,0.25772,0.034943
-0.06302,-0.039521,-0.11887,-0.26322,0.65385,-0.18936,0.27939,0.074311
-0.042573,0.06363,-0.18875,-0.15763,0.39719,-1.5279,0.1622,0.10178
-0.055695,0.041657,-0.0795,0.064851,0.16922,-0.13443,0.58335,0.024872
-0.043793,0.005951,-0.078279,-0.12314,-0.11521,1.01,0.7451,0.083467
-0.054475,-0.0022889,-0.05417,-0.14939,-0.015412,-0.013581,0.42283,0.081636
-0.079805,0.0044251,-0.02884,-0.04715,-0.57969,-0.50919,-0.74357,0.059968
-0.028534,-0.075532,0.033417,-0.002594,-0.2385,0.10971,-1.2935,0.083772
0.022126,-0.14572,0.049592,0.13718,0.057221,0.23178,0.43717,0.094453
0.02945,-0.12009,0.022431,-0.11124,-0.0086976,0.083162,0.46983,0.03006
0.0096132,-0.083772,0.0071717,-0.18326,0.28824,-0.051118,0.30228,-0.022431
0.018769,-0.10605,-0.023957,-0.077058,-0.1265,-0.053864,0.43931,-0.092927
0.038911,-0.10941,-0.046235,-0.1207,-0.57237,0.33738,0.23819,-0.068818
0.035859,-0.092927,-0.045624,0.009308,0.039521,0.29618,-0.72038,-0.11643
-0.022736,-0.040436,-0.077974,-0.019379,0.56657,-0.20859,-0.41794,-0.10147
-0.056916,0.044099,-0.11856,-0.1265,0.4387,-0.3801,-0.060883,-0.010529
-0.051423,0.019074,-0.12863,-0.10758,-0.65232,0.55772,0.48997,0.081941
-0.0206,0.016632,-0.15885,-0.016327,-0.06363,0.039521,0.34653,0.058442
-0.11185,0.10575,-0.14115,-0.15793,0.58457,-0.17411,-0.85893,-0.073701
-0.11307,0.048371,-0.11704,-0.074922,0.035248,0.12314,-0.44968,0.029755
-0.066072,0.025788,-0.0972,-0.17685,-0.30991,0.15579,0.32914,0.18509
-0.012665,-0.036164,-0.030365,0.025788,-0.17594,-0.55863,-0.23453,0.069123
-0.017243,-0.068818,-0.017853,-0.013275,-0.0096132,-0.32273,0.025788,-0.015106
-0.038605,-0.056611,-0.017548,-0.10239,0.37613,0.14878,0.23087,-0.015717
-0.077058,-0.032502,-0.0065614,-0.13352,-0.14359,0.087739,0.21744,0.02121
-0.027619,-0.10361,0.0383,0.0016785,-0.046845,0.11795,0.18723,0.07187
0.026703,-0.11276,0.034943,-0.032807,-0.17502,0.80064,0.58701,0.19364
0.025177,-0.087739,-0.030976,-0.0022889,0.09781,0.23392,0.78813,0.11002
0.066682,-0.077974,-0.016022,-0.27787,0.21836,-0.27024,0.69474,-0.044404
0.07187,-0.12497,-0.018158,-0.13382,-0.22324,0.19791,0.048371,-0.19577
0.0053407,-0.058747,-0.070954,0.025788,0.2797,-0.02182,-1.3866,-0.25315
-0.0074769,-0.034028,-0.090486,-0.0053407,0.36515,-0.55497,-1.5795,-0.069734
-0.020905,-0.027619,-0.11887,-0.078279,0.58366,-0.52903,-0.081331,0.024872
-0.070954,0.052338,-0.14481,-0.1735,-0.23636,0.13504,0.7039,0.017548
-0.12345,0.091096,-0.14908,-0.14481,-1.7549,0.50645,0.30411,-0.033417
-0.0795,0.020294,-0.098726,-0.0010681,-0.41062,0.091402,-0.4564,-0.012665
-0.039216,0.0041199,-0.1033,-0.039521,0.12711,0.093843,-0.90745,0.061494
-0.096895,0.065766,-0.11978,-0.13901,0.66392,-0.94652,0.1503,0.03006
-0.058747,-0.0065614,-0.041657,-0.048676,0.52384,-0.49912,0.60746,0.094759
-0.028534,-0.049897,-0.011444,-0.0096132,-0.55802,0.58579,0.3917,0.17746
0.0086976,-0.074311,-0.034638,-0.086824,0.74296,-0.18204,0.18631,0.1384
-0.012055,-0.046235,-0.011749,-0.21469,0.37858,0.026398,0.64012,0.09781
0.002594,-0.11185,0.049592,0.012055,-0.43595,0.14481,0.40055,-0.06363
0.0383,-0.13993,0.018769,-0.016327,0.010834,-0.023041,0.10422,-0.083467
0.0010681,-0.084993,-0.025788,-0.18112,0.13931,-0.045319,-0.47501,-0.14572
-0.0047303,-0.092012,0.014801,-0.059663,0.025483,0.12894,-0.23087,0.0086976
-0.0062562,-0.068513,-0.023651,-0.00076295,0.1735,-0.014191,-0.72343,0.016632
0.049592,-0.068513,-0.084382,0.027924,0.99809,-0.09659,0.20676,-0.081636
-0.013275,-0.050813,-0.11154,-0.088655,0.19669,0.062104,-0.645,-0.086824
-0.06363,0.015106,-0.12924,-0.10452,-0.87907,0.016632,-0.34226,-0.010224
-0.11337,0.079194,-0.1387,-0.14359,-0.82689,0.72831,0.78019,0.15274
-0.12589,0.058137,-0.12772,-0.11093,-0.4918,0.2623,0.92699,0.13199
-0.11063,0.078584,-0.14908,-0.1561,0.13687,0.11002,1.0164,0.1622
-0.085908,0.026703,-0.07187,-0.013275,0.005951,-0.30106,-0.1323,0.029755
-0.057527,-0.034028,-0.036774,-0.034943,0.11948,-0.059968,-1.0979,-0.068208
-0.014191,-0.04593,-0.079194,-0.094759,0.25406,-0.29191,-0.030365,0.0010681
-0.0050355,-0.04654,-0.028229,-0.1561,0.40024,-0.73503,-0.33585,-0.084382
0.014801,-0.066682,0.020905,0.024567,-0.40391,0.15885,-0.41154,-0.057527
0.034333,-0.12009,0.020905,-0.051118,-0.070954,0.081025,-0.34928,-0.14664
0.019989,-0.11887,0.011444,-0.103,0.19211,0.099031,-1.1461,-0.1973
0.019989,-0.11826,0.025788,-0.067597,-0.28153,0.11337,-0.29191,-0.015106
0.019074,-0.095369,-0.012055,-0.103,0.23362,-0.042267,0.72007,0.08011
0.01297,-0.089876,-0.011749,-0.06302,0.067903,0.14389,0.56931,0.11002
-0.01236,-0.05478,-0.062104,-0.049287,-0.01236,0.14694,0.65751,0.11246
-0.036774,-0.030365,-0.092927,-0.10697,0.056001,0.1149,0.80369,0.11978
-0.041962,0.00045777,-0.12497,-0.18021,0.0086976,0.14145,0.75883,0.1207
-0.07187,0.033722,-0.11307,0.14054,-0.024872,0.051118,-0.033112,0.018769
-0.028534,-0.028229,-0.11337,0.050813,-0.01297,0.015412,0.7335,0.037079
-0.10727,0.10452,-0.17502,-0.26108,0.11398,-0.1033,0.66636,0.075227
-0.087434,0.025788,-0.097505,-0.024567,0.18967,-0.2858,-0.63859,0.053254
-0.065156,0.069123,-0.13169,-0.16587,0.13565,-0.1622,-1.8743,-0.017243
-0.037385,-0.05478,-0.036774,-0.23972,0.048371,0.032807,0.1323,0.059663
-0.036469,-0.046235,-0.025483,-0.033722,-0.47501,-0.032807,1.1479,0.091707
0.0080873,-0.052033,-0.030976,-0.048676,-0.77165,0.12131,-0.18326,-0.067292
-0.012665,-0.058442,0.0077821,-0.083162,0.34287,0.32334,-0.72374,-0.27146
-0.0086976,-0.075532,-0.0038148,-0.13077,-0.26383,0.4094,-0.6981,-0.20523
0.022736,-0.15274,0.073701,0.012055,0.29557,0.069734,-0.61143,-0.057221
0.06363,-0.1738,0.027314,0.087434,0.51499,-0.18479,-0.74052,0.1326
0.048981,-0.05417,-0.043793,-0.0080873,0.015412,-0.61357,0.19028,0.13474
-0.023346,-0.041657,-0.056916,-0.19211,-0.32639,0.29007,0.46616,-0.11978
-0.048676,0.024262,-0.10452,-0.10788,-0.36362,0.13993,0.10422,-0.20066
-0.015412,-0.034943,-0.049897,-0.046845,0.18418,-0.10178,0.28244,-0.073396
0.031891,-0.13443,-0.082551,0.059358,0.21195,-0.050507,-0.055695,-0.0044251
-0.052949,0.031281,-0.16922,-0.25559,0.2681,-0.15824,-0.64775,0.0041199
-0.1323,0.089265,-0.14054,-0.13107,0.6981,-0.86717,0.085908,0.017243
-0.075532,0.033722,-0.12345,-0.02121,-0.043183,0.37888,0.7509,0.23758
-0.092927,0.048371,-0.11521,-0.13687,-0.16617,0.26902,0.24704,0.14298
-0.103,0.061189,-0.10025,-0.074922,-0.15213,-0.098421,-0.08957,0.075532
-0.045319,-0.026703,-0.027924,-0.083772,-0.12222,0.097505,0.327,0.19059
-0.018769,-0.024567,-0.026398,-0.085298,0.17258,0.17044,0.3978,0.082246
0.011139,-0.069429,0.00076295,-0.00076295,0.11978,0.22416,0.079194,0.00076295
0.024872,-0.084077,0.0035096,-0.081025,0.27115,0.15793,-0.41093,0.0038148
0.027008,-0.11215,0.064546,-0.14145,-0.43809,0.14817,0.10849,-0.045014
0.014191,-0.08835,-0.0068666,-0.027314,-0.73686,0.011139,0.41245,-0.033417
0.018158,-0.07248,-0.03769,0.015717,-0.13565,-0.12619,0.28,0.022736
0.027619,-0.095674,-0.0035096,-0.061494,-0.17075,-0.27512,-0.36301,-0.033722
0.036774,-0.12772,-0.0047303,-0.061189,-0.25254,0.14145,-0.36088,-0.048981
-0.017548,-0.059968,-0.074617,-0.24552,0.12711,-0.038911,0.17655,-0.070039
-0.027619,-0.062104,-0.08011,0.091402,0.54582,0.044404,-0.41276,0.0010681
-0.022431,0.002594,-0.15122,-0.0096132,0.7335,-0.083467,-0.60014,-0.023346
-0.085298,0.080415,-0.17472,-0.19486,0.67735,0.039521,0.37705,-0.10971
-0.094148,0.080415,-0.13474,-0.0972,-0.40238,-0.27481,0.37339,-0.0044251
-0.052033,-0.0038148,-0.10758,-0.1207,0.76219,-0.088045,0.19394,0.10208
-0.037385,-0.039521,-0.083162,-0.033722,0.49943,-0.27268,-0.44114,0.043793
-0.079194,0.025483,-0.10636,-0.091402,-1.0192,0.0041199,-0.63859,0.015106
-0.11215,0.038605,-0.013886,-0.094759,-0.92149,0.30045,0.13199,0.047456
-0.050813,-0.0044251,-0.025483,-0.075227,-0.013275,0.10178,-0.022126,0.052338
0.0096132,-0.10025,0.022736,-0.022126,0.11643,-0.11612,0.045624,0.042878
0.0099184,-0.077363,0.0074769,-0.14511,0.43351,0.037995,0.48112,0.08835
-0.002594,-0.065461,-0.014496,-0.17685,0.18906,0.29282,0.57328,0.091402
0.032807,-0.11063,0.034943,-0.0022889,0.039216,0.13565,0.51591,0.057221
0.050507,-0.16373,0.023651,0.3389,-0.47074,0.30564,0.5156,-0.045319
0.014801,-0.10483,-0.036469,-0.27512,-0.33341,0.42191,-0.22477,-0.13535
-0.019684,-0.034333,-0.062104,-0.14115,0.11246,0.011139,-1.6405,-0.059968
-0.032807,-0.016632,-0.11246,-0.08957,0.47196,-1.0228,-0.17411,0.059358
-0.057527,0.017548,-0.12222,-0.17288,0.37247,-0.11063,0.87022,0.022736
-0.070954,0.0099184,-0.11887,-0.014191,-0.11978,0.71946,0.54398,0.038911
-0.049287,0.0038148,-0.14908,-0.0053407,0.1561,-0.041962,0.2031,0.002594
-0.069429,0.048676,-0.11521,-0.11704,0.20035,0.13474,0.35264,0.0028992
-0.08896,0.039216,-0.08835,-0.11582,0.27787,-0.06424,0.62242,0.066682
-0.10941,0.057832,-0.15335,-0.1796,-0.36759,-0.9456,-0.50645,0.0383
-0.035554,-0.034333,-0.068818,-0.0065614,-0.32151,-0.19699,-1.8444,-0.068818
-0.022126,-0.037385,0.0206,-0.01236,-0.35996,-0.33371,-0.33982,0.032197
0.0038148,-0.10758,0.0083925,-0.042573,-0.00076295,-0.20066,0.6276,0.065156
0.016022,-0.099336,-0.044404,-0.22477,0.091402,0.64286,0.018158,-0.00015259
0.013275,-0.059358,0.013275,-0.15854,-0.034943,0.71641,-0.54643,0.0035096
0.04654,-0.094453,0.0056458,-0.21408,-0.012665,-0.0056458,0.03769,-0.063935
0.065461,-0.11765,0.0096132,0.2153,0.097505,0.11673,0.50462,-0.033112
0.054475,-0.11887,0.019684,0.026703,0.11154,0.34867,0.74479,0.1854
0.044404,-0.098726,-0.028229,-0.091096,-0.0041199,0.14298,0.51194,0.21073
-0.022736,-0.040436,-0.069429,-0.052949,-0.07126,-0.19059,0.89799,0.0019837
-0.085908,0.0013733,-0.096895,-0.0028992,-0.0086976,-0.62089,0.69474,-0.38499
-0.12924,0.03006,-0.13169,-0.049287,0.18326,-0.39994,-0.60105,-0.49393
-0.1619,0.08011,-0.1445,-0.21897,-0.025483,-0.14603,-2.1239,-0.19272
-0.13596,0.065156,-0.13657,-0.18967,-0.1796,-0.08957,-1.1247,0.14023
-0.079805,0.056611,-0.12924,-0.10636,0.37797,-0.32944,0.96483,0.24887
-0.056916,0.019684,-0.10758,-0.042267,0.52445,-0.062409,0.72892,0.13107
-0.057832,0.011444,-0.083467,-0.0206,-0.74784,1.314,0.65599,0.076753
-0.069123,-0.002594,-0.046235,-0.09659,-0.0047303,0.83909,0.77531,0.059358
-0.059968,-0.0022889,-0.05417,-0.085908,-0.12589,0.062409,0.52811,0.16129
-0.0032044,-0.041352,-0.00015259,0.070039,-0.37339,0.28305,-0.30442,0.11276
0.075227,-0.17044,0.056916,0.015717,0.32944,-0.34592,-1.0393,-0.0050355
0.011139,-0.076448,-0.0062562,-0.30594,0.011139,-1.0338,-0.24582,-0.027619
0.058442,-0.12558,0.039521,-0.11917,-0.56352,-0.033112,0.48844,-0.0062562
0.11704,-0.21042,0.019379,0.011139,-0.51652,0.91844,0.56809,0.067903
0.081941,-0.16495,-0.010224,-0.020905,0.33249,-0.17319,0.082551,-0.048981
0.002594,-0.062715,-0.039826,-0.099031,1.7452,-1.0539,-0.60502,-0.067597
-0.036469,-0.005951,-0.081941,-0.066682,0.72709,0.36759,-0.32029,-0.0071717
-0.029145,0.011444,-0.11307,-0.090486,-0.52964,0.41123,0.49973,0.0032044
-0.08072,0.061799,-0.15,-0.13748,-0.32547,-0.21195,0.4625,-0.077363
-0.063325,0.025177,-0.13046,-0.034638,-0.77684,0.19242,0.32151,-0.0010681
-0.061494,0.074006,-0.14267,-0.054475,-1.2874,0.43687,0.46036,0.088045
-0.10971,0.04715,-0.11276,-0.10086,0.7393,-0.20432,-0.66331,-0.020905
-0.1268,0.051423,-0.13291,-0.19333,1.1064,-0.22324,-0.83543,0.081331
-0.072175,0.0062562,-0.079194,0.070039,0.23484,-0.13413,-0.11429,0.085603
-0.023346,-0.068513,-0.044099,-0.13169,-0.31998,-0.52384,0.27024,0.05539
-0.041657,-0.036164,0.0062562,-0.20279,0.57786,-0.087129,0.78294,0.039826
-0.022736,-0.062104,0.019379,-0.040742,-0.65629,1.1876,-0.2974,-0.014496
0.0056458,-0.10025,0.023957,-0.09781,-0.80308,0.43595,-0.28977,-0.025483
0.086824,-0.20188,0.074922,0.14298,0.49393,-0.11063,-0.045319,-0.019379
0.035248,-0.092317,-0.017853,-0.12894,0.63523,-0.76036,-0.13962,-0.067292
0.0038148,-0.046235,-0.057221,-0.19181,-0.01236,-0.27268,0.60624,-0.031586
0.034028,-0.084688,-0.0074769,-0.048676,-0.37125,0.062104,0.22965,0.0074769
-0.014801,-0.051423,-0.055085,-0.033722,0.31327,0.47074,-0.31937,-0.051728
0.022736,-0.050507,-0.10086,0.037385,0.22385,0.77684,-0.11032,0.020905
0.049592,-0.067903,-0.090181,0.051728,0.23484,-0.24826,-0.72374,-0.0080873
-0.048981,0.015717,-0.13931,-0.12161,0.096895,-1.4961,-0.55039,-0.12863
-0.12619,0.057527,-0.12314,-0.14603,-1.0668,-0.07187,0.30777,0.0013733
-0.16373,0.090486,-0.12863,-0.15488,0.10605,0.37461,0.25986,0.062104
-0.12955,0.071565,-0.11978,-0.18296,-0.21042,0.66606,0.7982,0.060578
-0.12406,0.044404,-0.11887,-0.070649,-0.1912,0.47807,0.42618,0.13535
-0.070954,0.0053407,-0.090486,-0.0065614,0.63249,-0.66972,-0.64652,0.073701
-0.052949,0.0010681,-0.055085,-0.15732,0.25559,-0.27848,-0.8751,0.074006
-0.013275,-0.076143,0.038605,0.039216,-0.41093,0.093233,0.77684,0.084688
0.0010681,-0.083467,0.030671,0.025177,-0.0032044,-0.070344,0.38041,-0.039826
0.045319,-0.10849,-0.042878,-0.15122,0.2977,0.083467,0.11704,-0.0010681
0.012055,-0.091707,0.018769,-0.20615,0.045014,-0.26017,-0.99107,-0.052949
0.023346,-0.08011,0.0080873,-0.11643,-0.075837,-0.011749,-0.73594,-0.012665
0.045319,-0.13687,0.019989,-0.048676,-0.079805,0.034943,0.92943,0.097505
0.023957,-0.091402,-0.027008,-0.049592,-0.062104,0.2855,0.39689,0.0016785
-0.029145,-0.040436,-0.066377,-0.014801,-0.33433,0.87663,0.31815,-0.0062562
-0.021515,-0.077668,-0.086519,0.023957,0.32609,-0.12497,-0.0065614,-0.055085
-0.012055,-0.027314,-0.12375,-0.12772,0.45335,-0.034028,-0.053254,-0.086824
-0.06363,0.036469,-0.13443,-0.11368,0.34073,-0.0013733,-0.35233,-0.11734
-0.068208,0.036164,-0.1387,-0.018463,-0.16007,-0.81041,-0.89067,-0.11063
-0.04715,0.059968,-0.17655,-0.1088,-0.45762,0.17227,-0.48112,0.075227
-0.048371,-0.019684,-0.055085,-0.051423,-0.51164,0.28305,0.49943,0.12772
-0.058747,0.069429,-0.12619,-0.13382,-0.24643,-0.051118,0.43931,0.090486
-0.064546,0.059358,-0.069123,-0.13046,0.15732,-0.40513,-0.21256,0.052033
-0.015717,-0.075837,0.0016785,0.058137,0.066072,0.053254,0.40513,-0.037079
0.0080873,-0.066987,-0.011444,-0.10391,0.20737,0.19181,0.74571,0.046235
0.024872,-0.085908,0.032502,-0.12314,-0.10239,0.21714,0.18296,0.065461
-0.03769,-0.069734,0.0096132,-0.068208,-0.22812,0.061189,-0.74876,-0.052644
-0.044709,-0.11551,0.024567,-0.12314,0.21256,-0.26932,0.1326,-0.032807
-0.0053407,-0.10636,-0.0053407,-0.014496,0.41276,-0.25101,-0.43778,-0.041962
0.014801,-0.072175,0.005951,-0.014496,-0.8864,0.72465,-0.57176,0.0068666
0.037385,-0.087434,-0.049897,-0.05539,-0.13443,0.03006,0.0013733,-0.056001
0.024872,-0.12375,-0.056611,-0.025177,1.5468,-0.51377,0.28,-0.085298
-0.024567,-0.021515,-0.12833,-0.1326,1.3127,0.61692,0.12528,-0.12802
-0.078279,0.049897,-0.1384,-0.1912,-0.17227,0.60441,-0.06363,-0.057832
-0.099336,0.034333,-0.13687,-0.085603,-1.5621,-0.43931,-0.023041,0.086519
-0.099336,0.062104,-0.15183,-0.0028992,0.17563,-0.18936,0.35813,0.19638
-0.091096,0.048066,-0.1146,-0.043183,0.53452,-0.12894,0.31022,0.15732
-0.059968,0.0044251,-0.089265,-0.15061,0.72496,-0.077974,-0.28977,0.086519
-0.038605,-0.014801,-0.064851,-0.089876,0.40452,-0.60227,-0.79606,-0.070039
-0.052644,-0.0022889,-0.045624,-0.076448,-0.21866,0.023957,0.079805,-0.037079
-0.035859,-0.024567,-0.0080873,-0.087739,-0.82414,0.36912,0.16678,0.10605
0.00076295,-0.11063,0.022126,-0.035554,0.13504,-0.084077,0.093538,0.080415
-0.012055,-0.085603,0.010529,-0.086824,0.12192,0.051118,0.22965,0.065766
0.025177,-0.090486,0.0022889,-0.047761,-0.1503,0.085603,0.2504,0.091707
0.033112,-0.11826,0.044709,0.017853,0.011444,0.012665,0.32456,0.079194
0.073396,-0.14694,0.0071717,-0.082856,0.18967,-0.094453,0.30991,0.018158
0.0071717,-0.050813,-0.06302,-0.18265,0.2089,-0.12833,0.15518,-0.051423
-0.037079,-0.016632,-0.10086,0.0010681,0.13474,-0.091707,-0.59007,-0.15213
-0.029755,-0.030976,-0.062409,0.0972,-0.17166,0.23667,-0.74174,-0.0383
-0.035554,-0.035859,-0.06302,-0.15549,0.055695,0.54917,0.68742,0.11887
-0.081331,0.023957,-0.17014,-0.1384,-0.069429,0.42313,1.1864,0.099947
-0.036469,-0.023346,-0.14267,-0.13291,-0.49119,-0.19242,0.94438,-0.040436
-0.086824,0.070649,-0.16007,-0.25986,0.26719,0.29953,0.12222,-0.13016
-0.11734,0.099641,-0.13748,-0.29496,-1.1083,0.36484,-1.2654,-0.1091
-0.027619,0.0019837,-0.092927,0.30106,-0.75334,-0.55283,-2.0583,0.0013733
-0.043793,-0.015717,-0.053254,-0.1268,1.1641,-0.72129,-1.277,-0.072786
-0.059052,0.015106,-0.034943,-0.19883,0.74144,-0.060578,0.35538,0.14054
-0.0080873,-0.066377,0.015717,-0.0065614,-0.23087,-0.33097,0.91936,0.20584
0.026703,-0.12406,0.050507,0.050202,0.11978,-0.14786,0.25559,0.0096132
0.039216,-0.12619,-0.0013733,-0.085603,0.16403,0.26627,0.31815,-0.0383
0.015717,-0.096895,0.018463,-0.11978,0.049287,0.11673,0.076753,-0.078279
0.039521,-0.090791,-0.011444,-0.040742,0.11032,-0.11429,-0.75883,-0.034943
0.010834,-0.091707,-0.0053407,-0.040436,-0.48844,0.038605,0.33707,0.016938
-0.056916,-0.057832,-0.024872,-0.092622,-0.30594,0.35203,1.1254,0.0016785
-0.049287,-0.022736,-0.059968,-0.10544,0.40116,0.49912,0.44511,0.016022
-0.04593,-0.036164,-0.090791,-0.010224,-0.23667,0.33494,-0.61997,-0.095369
-0.037385,-0.012665,-0.12131,-0.056611,-0.065156,-0.38956,-0.26993,-0.073091
-0.038911,-0.0028992,-0.13748,-0.065156,0.45182,-0.75151,-1.1867,-0.023651
-0.052033,0.027314,-0.16373,-0.11521,0.056916,-0.83299,-1.1446,-0.047456
-0.13535,0.11398,-0.12924,-0.13993,0.057221,0.61173,0.64927,0.089265
-0.063935,0.010529,-0.062715,-0.0068666,-0.23911,0.45457,0.60349,0.14664
-0.050507,-0.0074769,-0.10025,-0.043488,0.22995,0.1146,0.37919,0.19883
-0.065461,0.01236,-0.068818,-0.17319,0.37034,0.25559,0.43168,0.23758
-0.0013733,-0.042878,-0.034943,-0.13443,-0.88884,0.63218,0.43961,0.2565
0.013581,-0.090181,0.010834,-0.05417,-1.787,0.47776,0.11856,0.058137
0.030365,-0.11612,0.009308,0.016632,0.29587,-0.86198,-0.55558,-0.23667
0.018769,-0.089876,0.023957,-0.13107,1.4305,-1.1958,-0.38041,-0.25376
0.040131,-0.10483,0.019379,-0.099336,0.98619,-0.17594,-0.47776,-0.19791
0.03769,-0.11063,-0.00076295,-0.078279,-0.3975,0.65873,-0.011444,-0.050813
0.04715,-0.13993,-0.0086976,-0.050507,-0.27665,0.28458,0.33524,-0.035248
0.043183,-0.059663,-0.061799,-0.103,0.099336,-0.033112,0.28794,-0.17807
0.033722,-0.022126,-0.052033,-0.030365,-0.12741,0.11704,-0.22812,-0.10208
-0.025483,-0.0099184,-0.11215,-0.23911,-0.082856,0.079805,0.11704,0.042878
-0.088045,0.048371,-0.14511,-0.019684,-0.12039,-0.010834,0.3505,0.16159
-0.16159,0.077668,-0.13291,0.20005,0.071565,0.0206,0.78294,0.20157
-0.12589,0.02121,-0.14969,-0.18997,0.25925,0.29313,1.1623,0.15274
-0.11307,-0.013886,-0.089265,-0.12253,-0.28305,0.33677,1.0008,0.084077
-0.14176,0.035859,-0.10147,-0.017243,0.043183,-0.34195,0.060578,-0.014191
-0.10239,0.035554,-0.10452,-0.21561,0.0206,-0.21256,-1.3869,0.045014
-0.059968,-0.013581,-0.034028,-0.21164,-0.12558,-0.17472,-2.0815,0.061494
0.0035096,-0.10025,0.017853,-0.030976,0.088655,0.5333,0.077363,0.065156
-0.016632,-0.032197,-0.015412,-0.039216,-0.085298,0.67948,0.31907,-0.069123
0.049897,-0.10452,0.025788,0.051423,-1.2593,1.1614,-0.13382,-0.090791
0.065766,-0.15,0.022431,0.039521,-0.37583,0.64439,-0.18509,-0.055695
0.022126,-0.092317,0.0062562,-0.12894,1.4125,-0.76555,-0.24277,-0.10452
0.011139,-0.077668,-0.023041,-0.21347,1.3021,-0.9395,0.6215,0.039826
0.017853,-0.09781,-0.0065614,-0.066682,-0.18509,0.95048,0.48966,0.025788
0.033722,-0.090791,-0.040742,0.0019837,-1.0155,0.1207,0.041352,-0.015106
0.015717,-0.074922,-0.068818,-0.025483,-0.26566,-0.30137,-0.050507,-0.022126
-0.053864,0.050507,-0.13443,-0.16983,-0.4741,-0.87266,-0.16922,-0.009308
-0.049592,0.039521,-0.14542,-0.11246,-0.20066,-0.041047,0.045319,0.052949
-0.061494,0.028229,-0.121,-0.020905,-0.045319,0.3975,0.12589,0.059663
-0.090181,0.049592,-0.13535,0.035554,0.40696,0.098726,0.10849,0.027314
-0.093233,0.041657,-0.092622,-0.059052,0.33402,0.1622,0.27543,0.10575
-0.073091,0.019989,-0.12436,-0.29129,0.18845,0.17441,0.3563,0.12833
-0.073396,-0.0016785,-0.070649,-0.17502,0.083162,0.092317,0.15274,0.056306
-0.038605,-0.014801,-0.046235,-0.032807,0.065156,0.031281,-0.36362,0.063325
-0.016938,-0.036469,-0.017548,0.013886,0.33677,-0.29465,0.1854,0.089265
0.023346,-0.10758,0.052949,0.0056458,0.16312,0.20706,0.15091,-0.016632
0.029755,-0.12284,0.027924,0.052033,-0.4564,-0.26444,0.039826,-0.072786
0.042878,-0.067903,-0.045624,-0.23148,-0.6746,-0.10666,0.61509,-0.061189
0.066682,-0.17655,0.046235,0.03006,0.29191,0.14298,-0.30777,-0.077668
0.0795,-0.18631,0.023957,-0.04654,0.23392,-0.05417,-0.99229,-0.1033
0.0099184,-0.053864,-0.036469,-0.050813,-0.0050355,0.069734,0.28367,-0.13046
-0.056001,0.031281,-0.0972,-0.19516,-0.1323,0.16495,-0.57206,-0.090791
-0.023041,-0.043488,-0.085908,-0.10178,-0.47776,0.052644,0.68254,0.15518
-0.047761,-0.0062562,-0.13901,-0.14115,0.38895,-0.32944,0.82353,0.077363
-0.074617,0.035248,-0.13321,-0.06424,0.31998,-0.17807,-0.31174,-0.053254
-0.08896,0.057221,-0.15061,-0.070344,-0.024872,-0.039826,-1.2551,-0.16007
-0.095979,0.044404,-0.11887,-0.052338,-0.58213,0.44755,-0.96269,-0.057221
-0.10025,0.044404,-0.091096,-0.092622,-0.075227,-0.065156,-0.25895,0.12039
-0.062104,0.022431,-0.090486,-0.056306,0.092012,-0.15793,0.69932,0.2034
-0.072786,-0.00076295,-0.053254,-0.083162,-0.15244,0.21775,0.68864,0.087739
-0.085603,0.011139,-0.041657,-0.14115,0.041352,0.29801,0.52049,0.082551
-0.035554,-0.050813,0.016022,-0.026703,-0.059968,0.059358,0.34409,0.1976
0.041962,-0.13993,0.032197,0.027314,0.25223,-0.10147,-0.40909,0.11307
0.030976,-0.11948,0.043793,-0.11856,0.68345,-0.44694,-0.71031,-0.04654
0.036164,-0.11826,0.018158,-0.054475,-0.49546,-0.25254,-0.74846,-0.10391
0.023957,-0.092927,-0.048066,-0.13352,0.24582,0.28031,0.18387,-0.032807
-0.00015259,-0.044404,-0.034028,-0.10147,0.42618,0.72343,0.82078,0.084077
-0.013275,-0.098116,-0.014496,0.16739,-1.0866,0.2388,0.083772,0.07248
-0.065156,-0.037995,-0.089265,-0.093843,-0.41611,-0.021515,-0.10452,-0.057832
-0.020294,-0.02884,-0.11154,-0.14267,0.68986,-0.15579,-0.18296,-0.16007
-0.0383,0.023651,-0.1387,-0.083772,0.49088,0.103,-0.11215,-0.16068
-0.057527,0.028229,-0.14176,-0.1973,0.56046,-0.8571,-0.18997,-0.11856
-0.072175,0.04593,-0.12222,-0.055695,-0.2327,-0.78019,-0.051423,0.042267
-0.082246,0.044099,-0.099031,-0.061494,0.088655,-0.55833,0.25376,0.11154
-0.087739,0.021515,-0.103,-0.11704,-0.011139,0.28611,0.38895,0.10483
-0.067903,0.002594,-0.08011,-0.11032,-0.22324,0.50309,0.49424,0.2031
0.0035096,-0.032502,-0.041657,-0.069734,-0.1384,0.21653,0.6453,0.23972
0.017243,-0.038605,-0.024567,-0.095064,0.097505,0.3386,0.63401,0.056306
0.033722,-0.10239,0.031586,0.02182,-0.037385,0.48875,0.049287,-0.20829
0.022126,-0.087739,0.024262,0.062715,-0.02884,-0.23423,-1.2465,-0.27359
0.027924,-0.12894,0.02182,-0.13321,0.17472,-0.86931,-1.4644,-0.17472
0.026093,-0.11612,0.0056458,-0.22385,0.63828,-0.20188,0.54704,0.019989
0.035859,-0.099336,-0.0053407,-0.033722,0.42313,0.19028,0.82658,0.091707
-0.01297,-0.056611,-0.027619,-0.10361,-1.0567,0.26658,0.056306,0.036774
-0.05539,-0.0044251,-0.076753,-0.12558,-0.93706,0.76768,-0.20462,0.05539
0.0050355,-0.069429,-0.078279,0.0013733,-0.42985,0.22141,0.13504,0.13993
-0.018158,-0.022431,-0.12161,-0.065461,-0.46952,0.093233,0.55497,0.026703
0.0096132,-0.055695,-0.11612,0.045014,-0.11002,-0.60685,-0.56229,-0.13352
-0.073091,0.043183,-0.14847,-0.075532,1.3024,-1.3762,-0.81529,-0.084077
-0.16281,0.098421,-0.11673,-0.14908,1.8703,0.036469,-0.083162,-0.0068666
-0.13321,0.043488,-0.099031,-0.065156,0.38407,0.71061,1.3014,0.19028
-0.10513,0.059663,-0.10849,-0.19394,-0.84062,0.14572,0.6978,0.051118
-0.052033,0.019379,-0.081025,-0.068818,0.17136,-0.2739,-0.70787,-0.081636
-0.021515,-0.032502,-0.043183,-0.087434,-0.0065614,0.024872,-0.96818,0.019989
0.0096132,-0.099947,0.0383,-0.02945,0.026703,0.50492,0.20554,0.0096132
0.017548,-0.079805,-0.002594,-0.11154,0.17197,0.26139,0.44114,0.068513
-0.018769,-0.030671,-0.00015259,-0.1387,-0.72984,-0.35325,0.62089,0.041352
0.033722,-0.18204,0.074006,0.10605,-0.48966,-0.24033,0.31907,0.058442
0.029755,-0.090486,-0.035859,-0.14511,0.32731,0.15885,0.28763,0.039216
0.043488,-0.093843,0.00045777,-0.13596,0.1564,0.22263,-0.1564,-0.050813
0.019989,-0.10391,-0.027619,-0.026093,0.14206,0.21225,-0.64042,-0.087739
0.0096132,-0.066987,-0.075227,-0.043183,-0.67552,0.40543,0.26139,-0.095979
-0.026398,-0.023957,-0.10117,0.052033,-0.48264,-0.5507,0.072786,-0.062104
-0.089876,0.046235,-0.12284,-0.028229,1.0219,-0.50797,-0.095674,0.0056458
-0.10819,0.04654,-0.14542,-0.22019,0.6627,0.14328,0.31479,0.11643
-0.10544,0.070649,-0.15488,-0.11276,-0.016632,0.31907,0.59251,0.17929
-0.08072,0.021515,-0.12039,-0.017243,-0.56809,-0.06424,0.55924,0.16861
-0.01297,-0.025788,-0.097505,-0.13962,-0.45243,-0.031281,0.50553,0.1796
-0.074617,0.045624,-0.10849,-0.17807,0.38254,0.02884,-0.22354,-0.018463
-0.068208,0.0083925,-0.042267,-0.065766,-0.37736,0.011444,-1.1351,-0.13962
-0.020294,-0.0044251,-0.048066,-0.12161,-0.22446,0.079805,-0.10117,0.055695
0.026703,-0.1149,0.057527,-0.018769,0.06363,-0.46067,-0.60075,-0.025483
0.03006,-0.13962,0.035859,0.056611,0.013886,0.10727,0.3801,-0.052644
-0.0019837,-0.0795,0.0035096,-0.11582,0.48295,0.024872,0.60044,0.005951
0.033417,-0.12253,0.02182,-0.10178,0.019074,-0.25772,-0.18997,-0.011444
0.037995,-0.097505,-0.025788,-0.11643,-0.43656,-0.069429,0.19455,0.015106
0.027008,-0.072786,-0.0022889,-0.046845,-0.093538,0.27634,-0.55253,0.0074769
0.032197,-0.11398,-0.0022889,-0.022431,0.10575,0.26627,-0.24857,-0.11795
0.0090028,-0.078584,-0.077363,-0.028534,0.42771,-0.3389,0.43626,-0.14633
-0.052644,0.029755,-0.11734,-0.081025,-0.21622,-0.016022,-0.43107,-0.20066
-0.060883,0.009308,-0.1149,0.0038148,0.15274,0.078889,-0.66056,-0.089876
-0.12833,0.073396,-0.1735,-0.11978,-0.18784,0.24826,0.53086,0.079194
-0.095369,0.07126,-0.16464,-0.21012,0.17502,0.23575,0.26749,0.12436
-0.04654,0.00045777,-0.066377,-0.098726,0.14878,0.17899,-0.8159,0.11154
-0.091707,0.03006,-0.10727,-0.075532,0.33585,-0.36912,-0.39414,0.032807
-0.085298,0.033722,-0.10513,-0.055085,-0.31296,0.048676,0.48203,0.1146
-0.05478,-0.002594,-0.049287,-0.17411,-0.011444,-0.018769,0.17288,0.12711
-0.047761,-0.016938,-0.021515,-0.37278,-0.035554,-0.52598,0.18753,0.10086
0.002594,-0.10575,0.026703,0.32578,0.00076295,-0.068513,0.32395,0.035859
0.042267,-0.15671,0.070344,0.052033,-0.027314,0.17716,0.45182,0.015106
0.027314,-0.10361,0.00076295,-0.072175,-0.17655,0.045624,0.23545,0.018769
0.021515,-0.085603,-0.0038148,-0.13382,-0.014191,0.016632,-0.40299,0.061494
0.027924,-0.11398,0.00015259,-0.078584,0.045014,-0.013581,-0.51743,-0.00076295
-0.0068666,-0.073701,-0.027619,-0.081025,0.04715,0.079805,0.025483,-0.069123
-0.043793,-0.031586,-0.070649,-0.15061,-0.23453,0.64164,0.38834,-0.11215
-0.073091,-0.002594,-0.08835,-0.23972,-0.62608,0.44114,0.59037,0.019989
-0.076753,0.026093,-0.13169,0.44907,0.21134,-0.31113,0.4979,0.12863
-0.052033,0.0019837,-0.13931,-0.0065614,0.91386,-0.58671,0.27848,0.086213
-0.015106,-0.038605,-0.11032,-0.21622,0.12284,0.072786,-0.19852,-0.022431
-0.049592,0.039521,-0.1387,-0.34562,0.15824,-0.21408,-1.0024,-0.12924
-0.11917,0.091707,-0.094759,-0.12497,0.34501,0.10391,-0.53788,-0.086213
-0.059663,0.0062562,-0.12039,0.034638,-0.15457,0.53574,-0.6392,0.11765
-0.029755,-0.025788,-0.067292,-0.20798,-0.62272,0.43656,0.20981,0.16098
0.01297,-0.011749,-0.052338,-0.12375,0.015412,-0.72099,0.66423,0.051118
-0.0041199,-0.067597,0.023346,-0.031586,0.33829,-0.76432,0.60533,-0.051118
0.034028,-0.12375,0.036164,0.0050355,-0.25315,0.83726,0.14206,-0.053254
0.0065614,-0.069429,0.0071717,-0.11154,-0.94102,0.055085,-0.87327,-0.103
0.0086976,-0.078889,0.0047303,-0.060883,0.077668,-0.25437,-0.57145,-0.029755
-0.0010681,-0.074006,-0.0090028,-0.11368,0.065156,0.11704,-0.57572,0.017243
0.019684,-0.10666,0.0013733,-0.033722,-0.11032,-0.32944,0.10391,0.0099184
0.0053407,-0.08011,-0.0383,-0.045014,-0.21744,-0.64683,0.24521,0.058137
-0.0047303,-0.062104,-0.1088,-0.039521,0.051423,0.29191,0.16007,0.056611
-0.022126,-0.061494,-0.0972,-0.073091,0.59037,0.2266,0.60441,0.023651
0.014801,-0.059663,-0.082551,0.042573,0.7155,0.091096,0.7216,0.011139
-0.0080873,0.016632,-0.10666,0.053254,0.12894,0.46464,-0.0795,-0.1564
-0.026703,0.039521,-0.14694,-0.15702,-0.41581,0.48356,-0.010224,-0.1207
-0.090791,0.050507,-0.12741,-0.1796,0.17838,-0.45853,-0.61997,0.016632
-0.1561,0.13046,-0.11673,-0.21622,-0.39475,-0.75853,-0.26474,0.1976
-0.14817,0.057832,-0.11887,-0.11582,-0.43595,1.0643,1.3799,0.26108
-0.085603,-0.039521,-0.019074,0.052033,-0.0795,0.5742,1.1104,0.16495
-0.02121,-0.079805,-0.036469,0.11765,1.3124,-0.84825,-0.014801,-0.13413
-0.046845,-0.040436,-0.024872,-0.30259,0.63279,-0.29282,-1.4858,-0.24094
0.015412,-0.090181,0.036164,-0.20218,-0.77073,0.66056,-0.28305,-0.015717
0.084382,-0.18051,0.065156,0.051118,-0.50278,0.37705,0.74205,0.0096132
0.0019837,-0.090791,0.002594,-0.035248,0.027619,0.034028,-0.55741,-0.21347
-0.029755,-0.051423,-0.023957,-0.066377,-0.21103,-0.77073,-1.2468,-0.076753
0.02182,-0.084688,-0.0077821,-0.044709,0.21683,-0.034943,0.4213,0.14267
0.034943,-0.081636,-0.04593,-0.028534,-0.22873,0.29313,0.63401,0.090181
0.018158,-0.068513,-0.070039,-0.068208,-0.59464,0.10056,0.15824,-0.00045777
-0.013581,-0.022431,-0.11093,-0.14725,0.39017,0.0010681,0.23087,-0.044404
-0.023651,0.012055,-0.1387,-0.16678,0.51774,0.21836,0.91783,0.059968
-0.070649,0.049592,-0.14298,-0.048371,-0.23362,0.10575,0.89433,0.1384
-0.091096,0.062409,-0.12314,0.013581,-0.46403,0.061494,0.78202,0.11429
-0.075227,0.051118,-0.11826,-0.056611,0.42466,-0.069123,0.14206,0.025177
-0.12039,0.075227,-0.10971,-0.12314,0.215,-0.12284,-1.2547,-0.077668
-0.055085,-0.009308,-0.081025,-0.1207,0.20035,-0.06363,-1.0805,-0.0074769
-0.028534,-0.042573,-0.026093,-0.15854,0.40543,-0.44999,0.34409,0.10239
-0.065156,-0.0077821,-0.020294,-0.10117,-0.49516,0.030365,-0.89311,-0.024567
-0.018463,-0.081636,0.0080873,-0.033722,-0.42222,0.38132,0.21134,0.035248
0.023651,-0.1146,0.0206,-0.04654,0.21775,-0.19638,0.68559,0.027314
0.040436,-0.10208,0.012055,-0.050507,0.21866,0.31571,-0.22934,-0.074617
0.041657,-0.12406,0.024872,-0.060273,-0.0383,0.16556,-0.59403,-0.095369
0.016022,-0.087739,-0.0083925,-0.078889,-0.046845,-0.79362,-0.26902,-0.0035096
0.022736,-0.10147,-0.0013733,-0.040742,-0.01297,0.29465,0.16526,0.039826
0.0016785,-0.068818,-0.068818,-0.018463,0.041962,0.20432,0.39231,0.0038148
-0.056611,0.010529,-0.11032,-0.081636,0.075532,0.15,0.33127,-0.051423
-0.034638,-0.025483,-0.092927,-0.0086976,-0.15671,-0.079194,0.33402,0.0050355
-0.024262,-0.024872,-0.12222,-0.037385,-0.086824,-0.15702,0.36606,0.098421
-0.064546,0.041657,-0.15671,-0.28916,0.086213,-0.015412,0.36027,0.09659
-0.14176,0.11673,-0.168,-0.24002,0.026093,-0.050202,-0.10636,0.013886
-0.11948,0.02945,-0.08835,-0.0795,-0.070039,0.023957,-0.72099,0.010834
-0.078889,0.030671,-0.09659,-0.013275,-0.033112,0.16892,0.21073,0.19181
-0.036774,-0.027924,-0.033112,-0.14328,0.035554,0.18753,0.38224,0.17044
-0.023651,-0.0206,-0.036164,-0.0086976,-0.0047303,0.29038,-0.14664,0.08011
0.016632,-0.095369,-0.016327,0.14023,-0.042878,0.06363,0.39628,-0.017243
0.023346,-0.09781,0.019684,-0.057527,0.15091,-0.69169,-0.61936,-0.22904
0.019074,-0.086519,0.0044251,-0.042573,0.041047,-0.17838,-0.70939,-0.1503
0.015412,-0.069429,0.019684,-0.12894,-0.14939,-0.063325,-0.12833,-0.024262
0.021515,-0.1326,0.023346,-0.070649,0.15274,-0.057832,0.29953,-0.019684
0.025177,-0.098116,0.017853,-0.093538,0.051118,0.056611,0.82048,0.011749
0.033417,-0.10056,-0.048066,0.032502,-0.020905,0.24521,0.60563,0.010529
0.040436,-0.083772,-0.077363,-0.1149,-0.35538,0.049287,-0.63218,-0.081025
0.013886,-0.059358,-0.10208,-0.11948,0.13809,-0.33707,-1.7321,-0.14481
-0.048981,0.0086976,-0.12314,-0.13138,0.71031,0.25772,-0.32181,-0.069734
-0.103,0.042267,-0.13657,0.010834,0.10758,0.4802,0.66423,0.041962
-0.099641,0.070344,-0.13626,-0.035248,-0.16678,-0.215,0.3328,0.10361
-0.11002,0.053254,-0.11734,-0.26291,-0.12985,-0.090486,0.16678,0.12467
-0.11246,0.086213,-0.14145,-0.15549,-0.49454,0.02884,0.086519,0.10391
-0.10575,0.05539,-0.085298,-0.047761,0.083467,-0.055085,0.12375,0.11002
-0.011444,-0.031586,-0.04715,-0.028534,-0.52354,0.33494,0.13382,0.14542
0.026093,-0.081941,-0.023957,-0.08896,-0.52873,0.30961,0.36912,0.10086
0.0032044,-0.12009,0.0206,-0.019684,-0.019684,0.71153,0.40482,-0.019379
-0.012055,-0.07248,-0.0056458,-0.076753,0.27726,0.22995,0.16434,-0.064851
-0.026398,-0.029755,-0.0090028,-0.12131,0.58976,-1.1592,-0.86534,0.015717
0.025177,-0.103,0.042267,-0.015106,0.64439,-1.4745,0.033417,0.059052
0.011749,-0.13138,0.011444,-0.0028992,0.075532,0.2742,0.044404,-0.030365
0.018769,-0.10605,-0.010834,-0.10147,-0.10819,0.11276,-0.86931,-0.092012
0.030976,-0.081636,-0.047761,-0.086824,-0.045319,0.12863,0.50797,0.047456
0.00045777,-0.030976,-0.10056,-0.038911,0.02182,0.15518,0.38529,-0.040742
-0.04654,-0.0044251,-0.089265,-0.10971,0.024262,-0.053254,-0.7924,-0.18601
-0.053864,-0.020294,-0.11612,-0.049287,-0.051423,0.064851,-0.45518,-0.0068666
-0.051118,0.010529,-0.13748,-0.055695,-0.15396,0.1973,0.49119,0.056306
-0.06302,0.044099,-0.14969,-0.09781,-0.14755,0.13413,0.38224,-0.0044251
-0.08896,0.066072,-0.13382,-0.10727,-0.016327,0.030671,0.26841,-0.0383
-0.092317,0.042573,-0.10208,-0.13443,-0.068513,-0.22202,-0.34775,0.045319
-0.093233,0.041352,-0.059358,-0.093538,0.55161,-0.41215,-0.58762,0.13107
-0.064546,0.02121,-0.054475,-0.094759,0.32364,0.42557,0.63066,0.21347
-0.01297,-0.034333,-0.031891,-0.060883,-0.70054,0.90745,0.5275,0.16709
0.040131,-0.12222,0.061799,0.029145,-0.048981,-0.26017,-0.074617,-0.015106
0.011139,-0.12985,0.026703,-0.094453,-0.57237,-0.12619,-0.57694,-0.18051
0.030976,-0.11673,-0.0099184,-0.099947,-0.77562,0.47959,-0.38895,-0.012055
0.048066,-0.13199,0.011749,-0.093233,0.86503,-0.4683,-0.00015259,0.066377
-0.0062562,-0.066987,-0.0099184,-0.08896,1.7385,-0.6331,0.1149,-0.0019837
0.0016785,-0.087434,-0.01297,0.098726,0.33158,0.3331,0.36637,0.0068666
-0.017548,-0.066072,-0.040436,0.047456,-0.83177,0.091707,0.31022,-0.14237
-0.00076295,-0.066377,-0.083162,-0.11582,-0.35203,0.16159,0.38041,-0.1033
-0.027314,0.0038148,-0.12619,-0.15122,0.037995,-0.14878,0.20676,-0.10758
-0.049897,0.019379,-0.15457,-0.11368,-0.8333,0.51926,-0.10147,-0.093843
-0.066682,0.021515,-0.12039,-0.15061,-0.085908,-0.056611,-0.81254,0.064546
-0.055695,0.048066,-0.15061,-0.13382,0.28428,-0.18845,-0.10788,0.103
-0.037079,0.03769,-0.10361,-0.094453,0.084382,0.078889,0.90349,0.16739
0.0028992,-0.042573,-0.078584,-0.042878,0.16464,-0.11276,0.46159,0.048981
-0.074617,0.04715,-0.074617,-0.08896,0.22141,-0.059358,-0.88396,-0.074922
-0.11826,0.062409,-0.055085,-0.094759,-0.27268,0.36606,-0.46586,0.10819
-0.061189,0.0010681,-0.027924,-0.24552,-0.33249,0.53941,1.4601,0.30442
-0.0013733,-0.088655,0.037995,-0.11765,0.074311,0.04715,0.55436,0.18051
0.070039,-0.18448,0.054475,0.10513,-0.11734,-0.098421,-0.83055,-0.060578
0.090791,-0.18021,0.023346,-0.010529,0.27756,-1.1431,-1.4025,-0.2269
0.051118,-0.10788,-0.012055,-0.075532,0.15885,-0.64652,-0.28946,-0.27298
-0.002594,-0.10758,0.032807,-0.02884,0.53605,0.61082,0.83116,-0.12985
-0.046845,-0.0044251,-0.077974,-0.10666,0.11826,0.47318,0.7277,-0.095369
-0.034943,-0.04593,-0.0795,0.0047303,-0.58183,0.23178,-0.65965,-0.077363
-0.019074,-0.047456,-0.11246,-0.22293,-0.47898,-0.023957,-0.18173,-0.0090028
-0.056611,0.019989,-0.12467,-0.29007,0.33219,-0.45853,-0.45029,-0.0090028
-0.078279,0.041657,-0.12924,0.21164,0.077668,-0.15,0.38254,0.026703
-0.094148,0.045624,-0.12894,-0.14878,-0.0062562,-0.13687,1.2758,0.051423
-0.12985,0.031586,-0.10269,0.036774,-0.15579,-0.019379,0.23117,0.027008
-0.12955,0.059358,-0.12772,0.04654,-0.16678,0.31205,-1.0213,0.17258
-0.086824,0.040742,-0.092622,-0.19821,0.24002,0.15091,0.75303,0.23972
-0.082246,0.0032044,-0.051118,-0.21103,0.68711,-0.3093,0.45884,0.059663
-0.05478,-0.0074769,-0.036164,-0.030671,0.11185,0.3508,-0.19089,0.093843
-0.011139,-0.090791,0.0041199,-0.00076295,-0.70817,0.31296,-0.14694,0.11978
0.062104,-0.11276,0.012055,-0.094453,0.43076,0.073091,-0.67979,0.11582
0.10086,-0.12619,0.022126,-0.087739,0.60472,0.22141,0.027008,0.016938
0.069429,-0.13382,0.020905,-0.050507,-0.023346,-0.44266,0.23209,-0.13596
0.045014,-0.11002,0.0080873,-0.098421,-0.98985,-0.15396,-0.87877,-0.19791
0.0050355,-0.086519,-0.0077821,-0.034333,-0.25498,-0.10788,0.086519,-0.14969
0.014801,-0.050813,-0.062104,-0.072786,0.057832,-0.24155,0.46494,-0.040742
0.0053407,-0.058137,-0.074311,-0.12741,0.077974,-0.1442,0.30472,-0.00015259
-0.016938,-0.029755,-0.10758,-0.061189,0.21164,0.039216,0.27787,-0.047761
-0.065766,0.048676,-0.1384,-0.072175,-0.016632,0.39475,0.049592,-0.011444
-0.11643,0.079805,-0.14084,-0.085908,-0.11917,0.46616,-0.35996,0.073396
-0.08011,0.021515,-0.14939,-0.13504,-0.42252,0.35447,0.068208,0.12985
-0.031586,-0.016632,-0.076753,-0.00015259,0.010529,-0.40665,0.18479,0.095674
-0.075227,-0.0019837,-0.067292,0.048676,0.46952,-1.1678,-0.32456,-0.027619
-0.0795,0.043793,-0.10605,-0.22416,0.070649,0.42588,-0.053254,0.014191
-0.047456,0.0080873,-0.066682,-0.34348,0.21775,0.45731,0.26413,0.092927
-0.066072,-0.044404,-0.017853,0.30198,0.71214,-0.18448,0.19364,0.076143
-0.037385,-0.042878,0.0013733,-0.22293,-0.25376,0.46128,0.52873,0.24186
0.058137,-0.17227,0.067597,-0.05539,-0.6746,0.093538,0.48386,0.22293
0.060273,-0.10849,0.0016785,0.10361,0.24674,-0.33158,-0.068818,0.002594
-0.035248,-0.047761,-0.013886,-0.038911,0.21927,-0.015412,-0.41001,-0.21805
-0.031281,-0.069429,-0.020905,-0.051118,-0.040436,-0.011139,-0.78843,-0.23911
0.048066,-0.14176,0.012055,-0.22721,-0.58366,0.55833,-0.040742,-0.076753
0.0099184,-0.072786,-0.054475,-0.20798,-0.34775,0.023957,0.41794,-0.092317
-0.05539,0.0044251,-0.10208,-0.16403,0.88121,-0.74723,-0.17838,-0.067903
-0.037385,-0.034028,-0.061189,0.20401,0.36118,0.12314,0.14054,0.06302
0.011139,-0.051423,-0.13291,0.087434,-0.6688,0.50736,-0.048981,0.17502
-0.065461,0.057527,-0.17472,-0.26047,0.63737,-0.27909,-0.48814,0.047456
-0.15213,0.13535,-0.16739,-0.19821,0.9218,-0.50431,0.98192,-0.034638
-0.074922,0.024567,-0.11673,-0.17563,-0.29496,-0.13199,0.83543,0.085298
-0.018463,-0.043488,-0.054475,-0.098726,-0.31998,0.18082,-0.37186,-0.06302
-0.029755,-0.03006,-0.048371,-0.023041,-0.24155,0.068818,-1.6136,-0.16098
-0.04654,-0.0022889,-0.062409,-0.036774,-0.43534,-0.030976,0.25711,0.053559
-0.043183,-0.023957,-0.034333,-0.066987,-0.30198,0.3212,0.17319,0.1442
-0.022736,-0.056916,0.0022889,-0.12894,-0.67399,1.014,-0.9221,0.02121
0.058442,-0.13962,0.074006,0.029145,0.51743,-0.086519,0.08957,-0.12009
0.035248,-0.075532,0.018463,-0.035554,1.3338,-1.2413,0.30137,-0.10391
0.034028,-0.11673,0.019379,0.049287,0.028229,0.15671,0.72557,0.025483
0.020294,-0.10086,-0.010529,0.014801,-0.61845,0.22568,0.60288,0.073701
0.032807,-0.10758,-0.034028,-0.21683,0.25742,0.037995,0.36698,-0.0074769
0.013581,-0.059358,-0.10666,-0.20706,0.13626,0.17716,-0.34043,-0.1146
-0.060883,0.044099,-0.15122,-0.10575,0.045014,0.25223,-1.2874,-0.13779
-0.043793,-0.036164,-0.078584,-0.016632,-0.099336,0.024567,0.13321,0.045319
-0.08072,0.024567,-0.14511,-0.096284,0.11582,0.0038148,0.42374,0.10269
-0.077974,0.031586,-0.12222,-0.01297,-0.47135,0.098726,0.26841,0.17685
-0.075837,0.025788,-0.1088,-0.034638,0.014801,-0.14511,0.12009,0.14633
-0.08011,0.039216,-0.12253,-0.1146,-0.20127,-0.24949,-0.024567,0.056611
-0.103,0.02182,-0.077363,-0.12161,0.033722,-0.078279,0.64683,0.027314
-0.060883,0.0206,-0.044709,-0.026703,0.60594,-0.069123,0.22599,0.019074
-0.031891,-0.030976,-0.011444,-0.1857,0.15122,-0.11765,-0.38254,0.060273
-0.023346,-0.067903,-0.018463,-0.15091,-1.0164,0.69078,-0.86229,-0.014496
-0.0047303,-0.11856,0.014801,-0.067292,-0.40909,0.71916,0.053254,0.05417
0.023346,-0.083467,0.0019837,-0.0022889,0.58671,0.17411,0.58091,0.056611
0.062409,-0.11154,0.0096132,-0.02121,0.46891,-0.3682,0.65629,0.015717
0.055695,-0.12009,0.0038148,-0.033722,0.13687,-0.87083,-0.37827,-0.11246
0.018769,-0.10239,-0.0065614,-0.074617,-0.77134,-0.58518,-1.7852,-0.13596
-0.032502,-0.058442,-0.041962,-0.094453,-0.041047,0.025177,-0.54643,-0.0068666
-0.052033,-0.03769,-0.076448,-0.048676,0.18418,0.45304,0.82383,0.086519
-0.068818,-0.024872,-0.10666,-0.060578,0.23545,0.21927,0.43687,-0.016938
-0.085603,0.037995,-0.14267,-0.056611,0.12894,0.094759,0.031281,-0.084077
-0.059052,0.0383,-0.1445,-0.093843,0.16648,-0.37949,-0.22354,-0.12039
-0.067597,0.027314,-0.1088,-0.08896,0.4976,-0.23606,-0.28702,-0.065461
-0.069734,0.053254,-0.11856,-0.1796,-0.27756,0.13657,0.17777,0.03769
-0.083467,0.065156,-0.1088,-0.068818,0.084077,-0.017853,0.6865,0.14542
-0.042573,-0.01236,-0.062715,0.010834,-0.28489,0.121,-0.002594,0.12772
-0.039826,-0.027619,-0.040131,-0.13321,-0.65812,0.0041199,-0.25193,0.023957
-0.018769,-0.030976,-0.026703,-0.11887,-0.013581,-0.16312,-0.0383,0.025788
0.018158,-0.081636,0.015412,-0.08957,-0.32975,0.064546,-0.54887,0.030976
0.050202,-0.12222,0.016632,-0.015106,-0.083772,0.080415,0.042267,0.04715
0.031281,-0.099336,0.0077821,-0.011139,0.37705,0.12345,0.64378,0.010529
0.025788,-0.096284,0.011444,-0.098726,-0.018463,0.46769,0.35904,-0.039216
0.045319,-0.16281,0.02182,-0.031586,0.49027,0.22324,-0.4329,-0.031586
0.050202,-0.15213,-0.00015259,-0.040742,0.73106,-0.32731,-0.11246,-0.049287
-0.030365,-0.023346,-0.075837,-0.090486,0.16312,-0.78141,-0.41306,-0.089265
-0.035554,-0.005951,-0.11765,-0.092317,-0.43381,-0.053559,-0.044709,-0.025177
-0.04654,0.037385,-0.11521,-0.09781,-0.094148,0.67674,0.67552,0.05417
-0.059663,0.042267,-0.13962,-0.11704,-0.0090028,0.12802,-0.037385,0.046235
-0.074617,0.041657,-0.12711,-0.0383,-0.12192,-0.016022,0.11917,0.087739
-0.08011,0.002594,-0.15091,-0.065156,0.26352,-0.16007,-0.29557,-0.0032044
-0.081636,0.060578,-0.1326,-0.18082,0.47898,-0.75517,-0.2504,-0.0206
-0.094148,0.022736,-0.07248,-0.073091,-0.48753,0.41855,0.52293,0.068208
-0.053559,-0.0053407,-0.032502,0.050202,-0.71702,0.015106,0.47166,0.15122
0.009308,-0.074006,-0.036774,0.018769,0.0028992,-0.15702,0.3563,0.08072
-0.024872,-0.024262,-0.060273,-0.14878,0.69352,0.084688,-0.4918,-0.093843
-0.048981,-0.053864,0.040436,-0.15457,-0.28397,0.032807,-1.1977,-0.12802
-0.036469,-0.066987,0.011444,-0.27146,-0.38743,0.078584,-0.087739,-0.010529
0.0028992,-0.098116,-0.00076295,-0.17014,0.18112,-0.0096132,0.49943,0.12985
0.058137,-0.1735,0.040742,0.061189,-0.077058,0.23362,0.3978,0.1265
0.059968,-0.14267,0.016327,0.0071717,0.5388,0.54063,0.62577,0.0795
0.03006,-0.088655,-0.023957,-0.077363,0.19913,0.72892,0.56718,-0.026398
0.017548,-0.064851,-0.084077,-0.049287,-0.5391,0.12772,-0.69963,-0.19852
0.0028992,-0.05417,-0.11063,0.034638,0.42741,-1.3194,-0.85344,-0.091402
-0.070039,0.050507,-0.17655,-0.099031,0.35386,-0.96788,-0.49973,-0.16587
-0.10605,0.092012,-0.12711,-0.15702,-0.085908,0.7628,-0.62211,-0.14633
-0.11978,0.052033,-0.103,-0.11337,-0.75761,0.26017,0.48508,-0.0044251
-0.049897,0.01236,-0.1088,-0.011444,-0.66331,0.52354,0.0010681,0.025788
-0.064546,0.017243,-0.11612,-0.016632,-0.32883,0.34104,0.28824,0.10544
-0.10025,0.035554,-0.1088,-0.215,0.14023,-0.2446,0.27237,0.11398
-0.053254,0.0062562,-0.067292,-0.089876,0.35294,0.2501,-0.3563,0.1442
-0.018463,-0.027619,-0.017548,0.0050355,0.96239,-0.11154,0.0074769,0.10452
-0.065461,0.0047303,-0.016327,-0.21225,1.3896,-0.92149,0.28153,0.0068666
-0.019684,-0.10391,0.05417,-0.08072,0.10819,0.35538,0.57725,0.083467
0.066072,-0.16953,0.030671,0.12924,-0.99992,1.4052,0.77348,0.20676
0.10483,-0.13962,0.0016785,-0.010224,0.41733,0.38621,0.40055,-0.025788
0.045014,-0.11978,-0.015717,-0.16953,0.62852,-1.0564,-0.6453,-0.23117
0.0096132,-0.047456,-0.027924,-0.053254,-0.75883,-0.80949,-1.0188,-0.15152
-0.0068666,-0.069734,-0.0206,-0.023651,-0.70573,0.38895,0.39109,0.016938
-0.028534,-0.048981,-0.06302,-0.093843,-0.0080873,0.0062562,1.2093,0.053864
-0.047761,-0.052033,-0.099641,-0.11124,0.018769,-0.25864,0.80949,0.11398
-0.07187,0.034638,-0.14572,-0.15457,-0.018158,-0.085908,-0.44511,0.089876
-0.045624,0.011444,-0.12497,-0.034943,-0.061189,0.065766,-1.3954,0.033417
-0.050813,0.035859,-0.14908,-0.026093,0.55497,-0.031281,0.46586,-0.10971
-0.095979,0.063935,-0.12284,-0.15335,0.63645,-0.090486,0.0090028,-0.16709
-0.11002,0.066682,-0.1149,-0.068818,-0.46067,0.41733,-1.093,-0.049592
-0.074006,-0.0044251,-0.075227,-0.027314,-0.62028,-0.087739,0.0065614,0.051423
-0.067292,-0.011749,-0.046845,-0.1265,0.19211,-0.7921,-0.34775,0.06363
-0.010529,-0.02945,-0.00015259,-0.10391,-0.39506,0.68681,0.20706,0.085298
0.024872,-0.13138,0.041047,-0.016327,-0.092927,0.43473,0.10849,0.072175
0.02121,-0.14054,0.013581,-0.1088,0.72404,-0.69841,-0.034333,0.053254
-0.0083925,-0.053864,0.0041199,0.019379,0.38193,-0.005951,0.59922,0.081941
0.058442,-0.14145,-0.0074769,-0.010224,0.10391,0.48569,0.47501,0.10758
0.066072,-0.13413,-0.024567,-0.095064,-0.10239,-0.069123,0.22812,-0.0035096
0.035248,-0.093538,-0.0047303,-0.075227,0.038911,-0.11673,0.23148,-0.13809
-0.018463,-0.01297,-0.062715,-0.15091,0.0035096,0.14908,0.05417,-0.12772
-0.019074,-0.013581,-0.069429,-0.085603,-0.076143,-0.10758,-0.79973,-0.040436
-0.03769,-0.032197,-0.12161,-0.10178,-0.27298,0.065461,-0.0022889,-0.047761
-0.070649,-0.00015259,-0.14786,-0.15763,-0.053864,0.15213,0.48753,-0.0056458
-0.088045,-0.00045777,-0.096284,0.044709,0.2742,0.037385,-0.24033,-0.044404
-0.095979,0.063935,-0.14481,-0.058137,-0.22416,0.058137,-0.58305,-0.024262
-0.091707,0.067597,-0.12863,-0.1912,0.16098,-0.32181,-0.19516,0.10178
-0.07126,0.050202,-0.10544,-0.083162,0.049592,0.086519,0.59739,0.13504
-0.047761,0.0010681,-0.040742,-0.010529,-0.30076,0.35203,0.20554,0.05539
-0.065461,-0.010834,-0.034028,-0.13687,-0.27054,0.073091,0.11032,0.036774
-0.026398,-0.050813,-0.0068666,-0.055085,-0.42924,0.1326,0.10636,0.059358
-0.015412,-0.053559,0.02182,-0.16495,0.32547,-0.023041,0.10697,0.14054
0.025788,-0.11765,0.0065614,0.010834,0.51774,0.16159,0.55924,0.16709
0.0074769,-0.10452,0.016022,-0.077058,0.1622,0.07126,0.17685,0.065461
0.027008,-0.11948,0.0096132,-0.045624,0.47807,-0.19699,-0.86839,-0.07126
-0.0019837,-0.060273,-0.02884,-0.36881,-0.13321,0.050507,-0.45274,-0.11795
0.03769,-0.12802,-0.0206,-0.063325,-0.86503,-0.13504,-0.37552,-0.25589
0.016632,-0.096284,-0.062409,0.56474,-0.12375,-0.45335,-0.38804,-0.20462
-0.058747,0.010224,-0.10452,-0.31754,0.1265,0.010529,-0.066987,-0.063935
-0.079194,0.039826,-0.11978,-0.09781,-0.34806,0.30777,0.43198,0.08072
-0.089876,0.061799,-0.15976,-0.052949,-0.025788,0.13352,0.34134,0.11398
-0.018463,-0.050813,-0.084077,-0.076448,0.2501,-0.005951,0.43809,0.14389
-0.032502,-0.010529,-0.11551,-0.0010681,0.37675,-0.76249,-0.15488,0.10269
-0.086824,0.089876,-0.14786,-0.21286,-0.17258,-0.090486,-0.047456,0.017853
-0.11978,0.066682,-0.10849,-0.11521,-0.11704,0.38621,0.89555,0.048981
-0.082856,0.0077821,-0.053254,-0.16526,0.12222,0.16892,0.020294,-0.077668
-0.030365,-0.081941,-0.029755,-0.06424,0.44541,-0.081941,-1.4656,-0.059358
-0.032502,-0.062409,0.0047303,-0.10086,0.11215,-0.091707,-0.60288,0.03769
-0.0074769,-0.09781,0.052338,-0.061494,0.0795,0.090486,0.74998,0.11826
0.052949,-0.12589,0.024567,-0.018769,0.17746,0.16587,0.41794,0.11978
0.055695,-0.10819,0.018158,-0.0044251,0.18021,-0.20279,0.62181,0.076448
0.037995,-0.11215,-0.011444,-0.018158,-0.052033,-0.59617,0.48844,-0.029145
0.010529,-0.091402,-0.025788,0.016938,-0.8687,0.52842,-0.22293,-0.045624
0.022736,-0.09659,-0.019989,-0.15549,-0.2565,0.57328,-0.72404,-0.073091
-0.039216,0.015717,-0.11063,-0.21073,0.26688,-0.4387,-0.13382,-0.13077
-0.059968,0.040131,-0.103,-0.10941,-0.13443,0.30961,-0.18173,-0.13565
-0.027314,-0.02884,-0.11521,-0.081636,-0.56168,1.1891,0.19638,0.0071717
-0.053864,-0.0056458,-0.13565,-0.073396,0.14939,1.0552,0.88975,0.080415
-0.050813,0.0206,-0.11826,-0.082856,1.0372,-0.25864,0.88396,0.079194
-0.072175,0.0383,-0.11978,-0.095674,0.46616,-1.7537,0.24826,0.023346
-0.083772,0.031891,-0.10849,-0.0071717,-0.94713,-0.94072,-1.1513,-0.10575
-0.049897,0.012055,-0.066072,0.069429,-0.38956,0.048981,-1.0906,0.031586
-0.045014,-0.0016785,-0.040742,-0.16312,0.28397,-0.68956,0.23575,0.06363
-0.048981,0.0022889,-0.028229,-0.29526,-0.27085,0.83146,0.012665,0.030976
-0.015717,-0.06424,0.016632,-0.030365,-0.59922,1.3414,1.2215,0.079805
0.067903,-0.14694,0.027619,0.02945,-0.38193,0.31449,0.48142,0.075837
0.027008,-0.13535,-0.01297,-0.14908,0.99382,-1.1034,-0.68315,-0.099031
0.03769,-0.14847,0.041962,-0.042573,0.85466,-1.1156,-0.54765,-0.12558
0.0035096,-0.087739,-0.0383,-0.056306,-0.19821,0.53391,-0.57511,-0.034943
-0.012665,-0.068208,0.0056458,0.013581,0.93309,0.041657,-0.065156,-0.067903
-0.043183,-0.040436,-0.067903,-0.011444,-0.11795,0.15763,0.22263,-0.025788
-0.0047303,-0.081941,-0.076143,0.070039,-0.12009,0.421,0.28641,0.042878
-0.035554,-0.023651,-0.11673,-0.1976,0.54032,-0.54124,0.11185,-0.0065614
-0.087739,0.061799,-0.15305,-0.24186,-0.67826,0.01236,0.12375,-0.0035096
-0.12009,0.078279,-0.10605,-0.072786,-0.5452,0.33188,0.35904,0.081941
-0.092927,0.059663,-0.1564,0.009308,0.17411,-0.037385,0.36332,0.18662
-0.051118,0.048371,-0.1265,-0.021515,0.3328,0.065156,0.14023,0.16526
-0.077363,0.037385,-0.077363,-0.10483,0.066072,0.012665,-0.13169,0.018158
-0.050813,-0.027619,-0.045624,-0.079194,-0.57908,0.089265,0.019684,0.039216
-0.023651,-0.020905,-0.073396,-0.22354,-0.030365,-0.031891,-0.0019837,0.069429
-0.020905,-0.064851,0.011749,-0.17777,0.25376,0.027008,0.084382,0.019379
0.0080873,-0.098726,0.011444,-0.065766,-0.093538,0.065766,0.52995,0.034028
0.035554,-0.095979,0.022736,-0.066377,-0.026703,0.0383,-0.11124,-0.052644
0.034028,-0.10239,0.030976,0.02121,0.094453,-0.075532,-1.483,-0.096895
0.010834,-0.10025,-0.0056458,-0.04654,-0.029755,0.024262,-0.47379,-0.059358
0.045624,-0.12619,0.002594,-0.036164,-0.10513,0.11246,0.66361,-0.0019837
0.035859,-0.094148,-0.034943,-0.099947,0.13046,0.095369,0.59037,0.010529
0.0010681,-0.043793,-0.095064,-0.05478,-0.16403,0.15763,0.55497,0.0074769
-0.015106,-0.022431,-0.084688,-0.06424,0.12192,0.24247,-0.15824,-0.00015259
-0.041962,0.0080873,-0.10819,-0.056306,-0.090791,-0.12955,-0.094148,-0.039216
-0.06302,0.016327,-0.14511,-0.092622,-0.099031,-0.36637,0.058442,-0.04715
-0.070039,0.032502,-0.1268,-0.062409,0.18357,-0.016327,-0.59098,-0.021515
-0.1326,0.11551,-0.14878,-0.14511,0.035248,-0.1326,-0.51041,-0.039521
-0.10849,0.0099184,-0.059052,-0.005951,0.02884,-0.11856,-0.52567,0.079805
-0.070954,-0.016632,-0.1088,-0.010224,0.035859,0.10513,0.46006,0.17288
-0.061494,0.016632,-0.073091,-0.23362,0.11093,0.13687,0.67399,0.19791
-0.043183,0.031586,-0.078584,-0.16312,-0.0206,0.15763,0.42527,0.1387
0.023957,-0.098726,0.018463,0.081941,-0.1146,0.023957,0.42771,0.045319
0.056306,-0.12253,0.038911,-0.0068666,-0.10483,-0.3331,-0.27573,0.0028992
0.019684,-0.11246,0.027619,-0.11185,-0.029755,0.10086,-0.49546,-0.14786
-0.00045777,-0.11429,0.023957,-0.10941,-0.31235,0.14176,-0.65629,-0.20096
-0.040436,-0.095979,-0.002594,-0.099641,0.040131,-0.11978,-0.4506,-0.16953
-0.039521,-0.083467,-0.027008,-0.0383,0.14054,0.059052,-0.86442,-0.12131
-0.024872,-0.066072,-0.043793,-0.026398,0.02182,0.11795,-0.081331,0.022736
-0.0053407,-0.056306,-0.077363,-0.016327,0.093538,-0.070649,0.83787,0.10391
0.0050355,-0.0077821,-0.095064,-0.10727,0.11704,-0.042878,0.5388,0.099641
-0.065461,0.022736,-0.12772,-0.098726,-0.023651,0.0050355,0.44022,0.048981
-0.065156,0.034333,-0.13169,-0.044404,-0.1735,0.049287,0.4625,0.074617
-0.058137,0.013581,-0.11917,-0.10788,-0.10544,0.081636,-0.027619,0.15396
-0.096895,0.052644,-0.12985,-0.074311,-0.16373,0.005951,-1.1083,0.10758
-0.13779,0.082551,-0.11093,-0.22782,0.13382,0.11124,0.34257,0.12039
-0.10208,0.039521,-0.036774,-0.04715,0.84855,0.56413,0.81956,-0.02945
-0.018158,-0.052033,-0.052338,0.0044251,0.51438,0.88273,0.027008,-0.025177
0.0071717,-0.064546,-0.074311,-0.19699,0.23606,0.17807,-0.45457,0.043793
0.04593,-0.11856,0.019379,0.04593,-0.60929,-0.92973,-0.18387,-0.016632
0.026093,-0.091402,0.030365,-0.17533,-1.4504,-0.57145,-0.21897,-0.092012
0.027924,-0.087434,0.023346,-0.011444,0.71733,-1.0256,-0.80613,-0.095979
0.03769,-0.11337,0.022126,0.052644,0.28916,-0.20615,-0.27695,-0.088045
0.035248,-0.10788,-0.0022889,-0.078889,-0.37644,0.15183,0.088045,-0.14023
0.015717,-0.10208,0.0077821,-0.10727,0.034333,0.21836,-0.42771,-0.090791
0.020294,-0.061494,-0.07248,-0.081025,-0.12253,0.50004,0.16526,-0.018463
-0.015717,-0.034638,-0.090486,-0.031586,0.11826,0.26963,0.82872,0.048981
-0.049592,0.016632,-0.13046,-0.14511,0.3209,-0.24277,0.74449,0.082551
-0.053559,0.026398,-0.14511,-0.087739,0.28763,-0.47837,0.2974,0.12833
-0.074006,0.051118,-0.14328,-0.094453,-0.073396,0.40665,-0.020905,0.13169
-0.066987,0.037079,-0.12619,-0.048981,0.11795,0.17441,-0.17929,0.074006
-0.08957,0.031891,-0.11307,-0.092317,0.021515,0.14267,-0.69017,-0.041047
-0.08011,0.02182,-0.094148,-0.081331,-0.54185,0.44724,-0.36393,-0.060578
-0.049287,-0.027924,-0.052949,-0.073091,0.53025,0.33982,0.44999,0.018769
-0.016632,-0.02182,-0.059358,-0.15366,0.55894,-0.026398,-0.29709,0.0090028
0.0013733,-0.092317,-0.0019837,-0.022126,-0.57847,-1.2361,-0.092927,0.069429
-0.015412,-0.089876,0.026398,-0.059663,-0.8275,-1.0393,-0.059663,0.031281
-0.0062562,-0.080415,0.036469,-0.044099,0.13626,0.26017,0.21561,0.090181
-0.051118,-0.038605,0.0077821,-0.022431,0.22538,0.4271,0.17655,0.035859
