0.009308,-0.14755,-0.07126,-0.044709,-0.17807,0.31846,0.10422,0.040436
-0.065766,-0.041962,0.0019837,0.048066,-0.11124,0.19516,-0.58152,-0.13993
-0.10117,-0.072786,0.026398,-0.18875,0.14847,0.15793,-0.56809,-0.17227
-0.034943,-0.084382,0.013275,0.033112,0.19516,-0.25711,-0.19944,-0.095369
-0.033417,-0.091707,-0.027619,0.17746,-0.025788,-0.12894,-0.55192,-0.072786
-0.17472,0.035859,-0.12375,-0.23545,0.038911,0.0028992,-0.33188,-0.059663
-0.10391,0.0022889,-0.10452,-0.077668,0.13107,0.060273,0.11246,0.072175
-0.028229,-0.070649,-0.14542,0.10575,-0.081941,0.12894,0.30869,0.12619
-0.058747,0.034638,-0.1738,-0.63859,-0.091096,0.061189,0.48997,0.075532
-0.074617,0.022736,-0.10849,-0.21775,-0.025177,0.039521,0.25162,0.16037
-0.08896,0.015106,-0.013886,0.23819,-0.012055,0.023346,-0.025788,0.13321
-0.19791,0.061799,-0.027924,-0.047456,-0.014191,0.11765,0.3331,0.12039
-0.18448,0.092622,-0.083467,-0.14389,0.03006,0.34714,0.18112,0.23331
-0.043183,-0.005951,-0.056306,-0.086824,-0.017548,0.48905,0.077668,0.18143
0.044099,0.016327,-0.096895,-0.098726,-0.067292,0.33707,0.45945,0.076753
0.055085,0.0062562,-0.0016785,-0.092317,-0.059968,-0.0019837,0.17288,0.031281
0.081636,-0.083467,0.025483,-0.01297,0.029755,-0.88609,-0.26535,-0.033722
0.092012,-0.066072,0.026398,0.037385,0.14786,-1.3448,-0.62638,-0.098116
0.14328,-0.11673,-0.039216,-0.013581,0.10605,0.29679,0.3917,-0.11734
0.11032,-0.16434,-0.066072,-0.25315,0.025483,0.4976,0.34226,-0.13748
0.087434,-0.17411,-0.059968,-0.023651,0.0071717,0.0795,-0.21469,-0.077668
0.13077,-0.22629,0.0022889,0.39994,0.022126,0.015106,-0.24491,-0.099031
0.032197,-0.18021,-0.058442,-0.74388,0.098726,-0.13901,-0.39902,-0.26169
-0.066072,-0.10636,-0.11978,-0.12772,-0.00076295,-0.0041199,-0.15885,-0.18784
-0.10056,0.091096,-0.103,0.28275,-0.069734,0.13138,-0.085603,-0.12711
-0.14054,0.15824,-0.092622,0.067903,0.032807,0.075227,-0.059663,-0.083772
-0.17197,0.16342,-0.10544,-0.35416,-0.082246,0.13077,0.38285,0.081941
-0.13962,0.12467,-0.14511,-0.32547,-0.16495,0.20462,0.33127,0.19669
-0.046845,-0.00076295,-0.084993,-0.15946,-0.1265,0.19364,0.30137,0.23789
-0.0795,-0.024567,-0.061189,-0.3798,0.013581,0.023041,0.41154,0.26658
-0.091096,-0.13901,-0.050813,0.69444,0.12375,-0.15854,0.44602,0.21561
-0.038605,-0.16251,-0.011749,-0.3035,0.15488,-0.052949,0.6743,0.11856
0.021515,-0.10452,-0.034333,-0.075227,0.025788,-0.027008,0.11673,0.056001
-0.057527,0.056611,-0.0086976,-0.0383,0.025483,-0.067597,-1.3277,0.0041199
-0.021515,-0.08011,0.045014,0.019379,0.0080873,0.66484,-0.5037,0.051423
0.037385,-0.096895,-0.039826,-0.14267,-0.11734,1.0472,0.981,-0.012665
0.099031,-0.077363,-0.036469,-0.15274,-0.047456,0.99382,0.4622,-0.13077
-0.0050355,-0.0083925,-0.030365,-0.061189,0.03769,0.0028992,-0.81529,-0.32242
-0.018463,-0.0028992,-0.074617,-0.079194,0.18814,-1.4968,-1.9878,-0.30625
0.014191,-0.053559,-0.088045,-0.037079,0.23789,-2.4926,-1.628,-0.16464
-0.050507,-0.090486,-0.051728,0.20432,0.034028,-0.21073,0.14725,-0.057832
-0.081331,0.0053407,-0.058442,0.17197,-0.022736,0.8513,0.88182,0.097505
-0.11826,0.11398,-0.121,-0.26566,0.0032044,0.29557,0.7042,0.10605
-0.14389,0.051118,-0.11643,-0.29526,-0.025483,0.22782,0.41001,0.14603
-0.20462,0.038605,-0.092622,-0.01236,-0.056916,0.12009,0.2208,0.15396
-0.15885,0.075837,-0.10117,-0.15213,-0.018769,0.066377,0.24704,0.13474
-0.071565,0.033417,-0.10452,-0.13443,-0.074617,0.16129,0.30045,0.20462
0.0086976,-0.018158,-0.10819,-0.18387,-0.13657,0.30655,0.37217,0.19089
0.044404,0.0013733,-0.06424,-0.3505,-0.082246,0.26474,0.37308,0.16556
0.11032,-0.18875,0.0016785,-0.21714,-0.11856,0.16159,-0.07126,0.059968
0.17288,-0.28397,0.024262,-0.25772,-0.13779,0.24186,-0.10941,0.0065614
0.1976,-0.25193,0.07126,-0.39384,-0.011444,0.0065614,0.21775,-0.011444
0.075227,-0.28611,0.12406,1.0582,-0.0013733,-0.37308,0.39445,-0.14542
0.15885,-0.18082,0.037385,0.98924,0.061189,0.044404,0.43687,-0.093843
0.0795,-0.08072,-0.084993,-0.41794,0.42954,-0.053864,0.56046,-0.11917
0.034028,0.025483,-0.10361,-0.4509,0.44511,-0.19577,0.36881,-0.14328
-0.021515,0.085908,-0.10452,-0.4155,0.12772,0.015412,-0.86748,-0.168
-0.11704,0.1091,-0.14694,-0.067597,-0.088045,0.048066,-1.6561,-0.23087
-0.1677,0.14633,-0.16098,0.00076295,-0.13199,0.15915,0.12894,-0.0383
-0.18601,0.19577,-0.14176,-0.13321,-0.055085,0.020905,-0.26291,0.082551
-0.21042,0.15763,-0.094453,-0.09659,-0.054475,-0.67704,-0.60807,0.052949
-0.17685,0.033112,-0.063325,-0.53819,-0.02884,-0.47715,0.011444,0.073701
-0.12375,-0.076143,-0.034028,-0.21897,-0.047761,0.25528,0.39231,-0.0041199
-0.065461,-0.10697,-0.027008,0.421,-0.066072,0.31907,0.69444,-0.027314
-0.075532,-0.0383,-0.077058,-0.023041,-0.16495,0.28702,0.65995,0.043183
-0.04654,-0.072786,-0.027619,-0.12284,0.0016785,0.16403,0.23392,0.14023
0.0077821,-0.18814,-0.016938,-0.12924,0.16587,-0.025177,-0.75639,0.17685
0.02884,-0.14755,-0.030671,-0.1091,0.012055,-0.094453,-0.29191,0.0795
0.089876,-0.12284,-0.015412,-0.06302,-0.038911,0.043183,0.47166,0.11765
0.098421,-0.082551,-0.030365,-0.059358,-0.046845,0.11093,-0.07187,-0.045014
0.055695,-0.048981,-0.064546,-0.023346,0.011139,-0.049287,-0.58762,-0.18723
0.014191,0.057527,-0.026398,-0.038911,0.029145,0.071565,0.56413,-0.0080873
-0.009308,0.0035096,-0.10147,-0.099336,0.041047,0.048676,0.76921,0.085908
-0.062104,0.10147,-0.12497,-0.18387,0.03006,-0.22599,0.41337,0.022736
-0.13077,0.071565,-0.046845,0.12924,0.005951,-0.11032,-0.51987,-0.05478
-0.07187,-0.085908,-0.00015259,0.070954,0.031281,0.168,-1.1653,-0.0080873
-0.033112,-0.051423,-0.11887,-0.19181,0.11185,-0.046235,-0.023041,0.026093
-0.022736,-0.032197,-0.14847,-0.19577,-0.11185,0.093538,0.28763,0.06302
-0.036774,-0.042267,-0.11948,0.086213,-0.2266,0.34745,0.16281,0.086824
-0.067292,0.032502,-0.064851,-0.2855,0.043793,-0.073701,0.014191,0.10544
-0.053254,0.025177,-0.045624,-0.49454,0.059968,-0.027924,0.099947,0.057832
0.01297,0.021515,-0.0065614,-0.61448,-0.054475,0.099947,0.45975,0.018769
0.044099,-0.087739,-0.0038148,1.0683,-0.065461,-0.2266,0.47135,-0.039826
0.0795,-0.17166,0.020905,0.10208,0.13596,-0.5864,-0.15946,-0.13596
0.06302,-0.18784,0.02945,-0.48661,0.21775,0.11734,0.10849,-0.16373
-0.0086976,-0.17807,-0.010224,-0.11154,0.011139,0.21103,-0.33371,-0.19211
-0.10422,-0.083467,-0.058137,-0.027619,0.14206,-0.13199,-0.48142,-0.12161
-0.12192,0.023651,-0.090486,-0.020294,0.038911,-0.041962,0.26993,0.026093
-0.11185,0.050202,-0.10086,-0.05417,-0.049897,0.20127,0.69444,0.14481
-0.089265,0.049287,-0.10452,-0.077668,-0.027314,0.16587,0.75059,0.27512
-0.16007,0.10208,-0.066682,-0.0022889,-0.067597,0.08072,0.75975,0.23819
-0.14572,0.11002,-0.069429,0.027924,-0.049592,-0.041047,-0.34775,0.15732
-0.12222,-0.084077,-0.065156,0.016022,0.039826,0.11154,-0.57603,0.15274
-0.034638,-0.22751,-0.12131,-0.10575,0.016938,-0.069429,0.21164,0.035859
-0.064546,0.011749,-0.12558,-0.39048,-0.01297,-0.51987,-1.2026,-0.19028
-0.056001,0.12528,-0.10208,-0.18326,0.043488,-0.12741,-1.667,-0.1442
-0.014191,-0.0099184,-0.04593,-0.077058,-0.032502,0.24552,0.55894,0.043488
0.0068666,-0.14145,-0.028229,-0.024872,-0.074617,0.13352,0.24399,0.037995
0.10208,-0.21775,0.00045777,0.0044251,-0.011139,0.10727,0.27573,0.015717
0.17533,-0.21439,0.0096132,0.1561,0.023041,-0.044099,0.13077,-0.037079
0.16098,-0.021515,-0.027619,-0.015412,-0.038605,0.062104,-0.13779,-0.059968
0.11063,0.058137,-0.05417,-0.22141,0.025483,0.024262,0.40482,-0.19211
0.11978,0.073091,0.0016785,-0.10971,0.11276,-0.33524,0.18479,-0.099947
0.089265,-0.050813,0.0077821,-0.047761,0.079805,0.32883,0.1973,-0.051728
0.024872,-0.2446,-0.032197,0.041352,0.016632,0.44266,0.33188,-0.023346
-0.077668,-0.14267,-0.048676,0.020905,0.061494,0.21744,-0.32151,0.002594
-0.1323,-0.0041199,-0.059052,-0.012665,0.07248,0.31846,-0.10575,0.052338
-0.1912,0.092012,-0.093538,-0.19516,0.029755,-0.065766,0.62486,0.056001
-0.2089,0.19974,-0.10819,-0.1677,-0.0065614,-1.4263,0.40482,0.12985
-0.093538,0.15976,-0.15122,-0.19486,-0.11765,-0.28672,0.22293,0.18936
-0.0010681,-0.065461,-0.084688,-0.13443,-0.11612,0.75303,0.17136,0.098116
0.0065614,-0.026398,-0.090791,-0.014496,-0.0086976,0.39414,0.64103,-0.035554
-0.016327,0.051423,-0.076143,-0.019379,0.10208,-0.14969,0.68986,0.023957
-0.10361,0.01236,-0.062409,-0.00076295,0.10056,-0.28092,-0.42344,-0.11063
-0.059968,-0.068513,-0.070344,-0.103,0.00076295,-0.098726,-1.9207,-0.10788
-0.04593,-0.059968,-0.039216,-0.11307,0.0047303,0.10361,-0.68589,0.041047
-0.02884,-0.10178,0.0038148,-0.11887,0.0028992,0.1796,0.97093,0.049897
-0.058137,-0.15091,-0.046235,-0.60746,-0.13535,0.34714,0.20706,0.052949
0.039216,-0.099336,-0.0090028,0.68162,-0.22934,0.50401,0.32914,0.075532
0.056306,-0.084382,-0.0074769,0.1442,0.0065614,-0.055695,0.5391,0.031281
-0.071565,0.044404,-0.074311,-0.9221,0.36484,-0.40757,0.052949,-0.067292
-0.061799,-0.087434,-0.023651,-0.24613,0.09781,-0.18235,0.059968,0.052338
0.041657,-0.29221,0.070954,0.65782,0.026703,-0.75883,-0.31235,0.061494
-0.01297,-0.11856,-0.11856,-0.047456,0.15,-0.016327,-1.1284,-0.041047
-0.045624,0.050507,-0.12039,-0.37064,0.013581,0.23606,-0.87541,-0.074617
0.0013733,0.032197,-0.044709,0.18143,-0.11978,0.10117,0.13107,0.069734
-0.018463,0.093843,-0.13748,0.07187,-0.011444,0.046845,0.23148,0.058137
-0.099947,0.10117,-0.12711,-0.67247,-0.055085,0.016632,-0.23239,0.039521
-0.1268,-0.016327,-0.026093,0.33585,-0.14145,0.11368,-0.059358,0.061799
-0.085603,-0.041657,-0.070039,0.009308,-0.028229,0.29984,0.4744,0.09659
-0.049897,0.023346,-0.093233,-0.43229,0.095979,0.42649,0.46738,0.070039
-0.0053407,-0.02182,-0.04593,0.18418,-0.0065614,0.3151,0.34012,0.039521
-0.038911,-0.042267,-0.04593,-0.21195,-0.0028992,0.037995,0.026093,-0.039216
0.02121,-0.041962,-0.014191,-0.1854,-0.033722,-0.45762,-0.00015259,0.022736
0.011749,-0.13779,-0.019684,-0.44694,0.027619,-0.59556,-0.12863,-0.022126
-0.045014,-0.11826,0.02945,0.40665,0.033722,-0.58091,-0.19669,-0.13993
0.019989,-0.10391,0.012665,0.98985,0.060273,0.11551,0.031281,-0.060883
0.034028,-0.041962,-0.070039,-0.59403,0.023651,0.22751,0.11063,-0.074922
-0.014191,-0.048981,-0.078279,-0.27817,0.01297,0.048676,0.10483,-0.11154
0.08957,-0.042573,-0.094453,0.063935,0.03769,0.14939,0.13596,-0.0041199
0.12924,-0.0022889,-0.085298,-0.018158,0.1973,-0.016022,0.12161,0.037995
0.084382,0.053254,-0.096284,-0.28092,0.048981,0.17014,0.31083,0.025788
-0.059052,0.053864,-0.12253,-0.22568,-0.13046,0.30259,0.30869,-0.029145
-0.12558,0.018463,-0.14664,-0.33921,-0.066682,0.19028,0.20371,-0.051423
-0.14847,0.0086976,-0.10758,-0.062715,-0.23606,0.31846,-0.2742,0.0013733
-0.16831,-0.027619,-0.065766,-0.18418,-0.28733,0.069429,0.0013733,-0.0090028
-0.13138,-0.066072,-0.0044251,0.01297,0.04593,-0.42771,-0.77409,-0.014801
-0.041352,-0.15427,0.084688,0.17594,0.086824,-0.61967,-0.63218,0.17227
0.049592,-0.12985,-0.034943,-0.11063,0.30655,-0.30655,-0.031586,0.20279
0.082246,-0.030365,-0.081025,-0.066987,0.41764,0.058137,0.076143,0.018158
0.10636,-0.077974,-0.063935,-0.17472,-0.082246,0.09781,0.57481,-0.030365
0.06302,0.0080873,-0.019684,0.0035096,-0.11398,0.21195,0.95201,-0.058747
-0.0022889,0.028534,-0.017853,-0.027314,-0.050813,0.16495,0.44144,-0.16373
-0.24552,0.073396,-0.084077,-0.47074,-0.11398,0.025177,-0.91691,-0.18509
-0.25589,0.03006,-0.07126,-0.1149,-0.061799,-0.0013733,-0.81865,0.034333
-0.11826,-0.072175,-0.037079,0.84459,0.22599,-0.015717,0.23758,0.16281
-0.10697,-0.060273,0.013275,-0.51102,0.33982,0.0206,-0.60288,0.12589
-0.039826,-0.16434,0.018769,-0.10788,-0.051423,0.023346,-0.064851,0.14633
-0.050813,-0.022736,-0.14572,-0.31052,-0.040742,-0.063325,0.39536,0.090791
-0.010529,0.028534,-0.10666,-0.15,-0.037385,0.073701,0.074311,0.1265
0.049287,-0.10422,-0.14481,-0.074311,-0.18357,0.39841,-0.018769,0.065766
0.058137,0.027314,-0.12436,-0.11856,-0.15244,0.20401,0.37675,0.084077
0.012665,0.0010681,-0.11612,-0.7921,-0.065766,0.22263,0.72465,0.10636
0.050202,-0.039826,-0.016327,0.62699,0.027008,-0.07187,0.66545,0.030365
0.074617,-0.00076295,-0.014191,0.58274,0.15702,-1.0188,0.15915,-0.10178
0.048066,-0.039521,-0.036469,-0.37675,0.16068,-0.17227,-0.52995,-0.25345
0.094453,-0.11673,0.0041199,-0.069734,-0.099947,0.14267,-0.83268,-0.1622
0.048066,-0.103,-0.0038148,-0.010529,0.074006,-0.17258,-0.48783,-0.13748
0.027008,-0.10422,0.0077821,0.033417,0.070344,0.23667,0.34653,-0.1265
-0.065156,-0.077363,-0.015412,-0.103,0.012055,0.35813,0.28794,-0.12833
-0.15366,0.011444,-0.069123,-0.20615,0.011444,0.045014,-0.26261,-0.15824
-0.13077,0.0053407,-0.072786,-0.29343,-0.061799,-0.022736,-0.5095,0.00045777
-0.103,-0.016938,-0.086213,-0.1149,-0.049897,0.33249,0.34592,0.14054
-0.17044,0.040742,-0.1091,-0.031281,-0.016632,0.38773,0.084382,0.16464
-0.11551,-0.018769,-0.072786,-0.0086976,-0.018463,0.44175,0.70207,0.25315
-0.066072,-0.064546,-0.082856,0.016938,-0.096284,0.13169,0.851,0.1915
-0.010834,-0.0016785,-0.099031,-0.085603,-0.035554,-1.0887,-0.022126,0.12802
0.070649,-0.066072,-0.046235,-0.077668,0.17044,-0.7628,-0.41703,0.18173
0.017853,-0.05417,-0.13474,-0.33463,0.12863,0.29252,-0.88457,0.10819
-0.02945,-0.052949,-0.1088,-0.17868,-0.040742,0.19974,-0.47044,-0.014191
-0.026703,0.1796,-0.076143,-0.10117,-0.056611,-0.02182,0.26383,0.017853
-0.049287,0.14786,-0.08072,-0.12467,-0.0083925,-0.43931,-0.55253,-0.06302
-0.045319,0.015106,-0.035554,-0.086824,0.043793,0.10575,-0.15946,-0.055085
0.084077,-0.074311,0.036469,-0.0041199,-0.016632,0.22232,0.31662,-0.0044251
0.16098,-0.17075,0.021515,-0.023651,-0.076753,0.068513,-0.16617,-0.090791
0.1088,-0.29404,0.017853,-0.099336,0.029755,0.094453,0.15854,-0.23636
0.023651,-0.21622,0.026703,0.069123,0.10636,0.10666,0.43076,-0.21195
0.060273,-0.23362,0.016327,0.1796,0.11246,0.098421,0.11917,-0.071565
0.019684,-0.13748,-0.10727,-0.40238,0.22995,-0.068513,-0.22568,-0.05478
-0.05539,0.046235,-0.11643,0.088045,0.056916,-0.014801,-0.33341,-0.012665
-0.14847,0.18479,-0.10544,0.17777,-0.1265,0.17136,0.15915,0.00045777
-0.1619,0.17044,-0.1149,-0.21775,-0.0047303,0.085603,0.42679,0.050507
-0.15152,0.11215,-0.13962,-0.17899,-0.050507,0.031281,0.39017,0.21408
-0.14817,0.0013733,-0.099336,0.005951,-0.041047,-0.042267,0.48417,0.28672
-0.17807,-0.027314,-0.058442,-0.010834,0.031586,0.033112,0.34134,0.15091
-0.20249,0.044709,-0.07126,-0.20401,0.048981,-0.044404,-0.82078,0.043488
-0.12314,0.019684,-0.070039,-0.16281,-0.059358,-0.073396,-0.81193,0.16007
-0.02945,-0.04593,-0.010529,-0.092927,-0.05539,0.05539,0.23819,0.17044
0.025177,-0.086213,-0.027924,-0.085908,0.0077821,0.11704,0.27207,0.08011
0.083467,0.0044251,-0.040436,-0.062715,0.0038148,0.11276,0.2034,0.067597
0.13046,-0.09659,0.043793,-0.2977,-0.0071717,-0.10758,-0.093233,-0.053254
0.16831,-0.36271,0.064546,0.31113,-0.024262,-0.095369,-0.1384,-0.215
0.069123,-0.12222,-0.11154,-0.16983,0.053864,-0.022736,-0.14847,-0.17838
0.055085,-0.018463,-0.043793,-0.010224,0.19272,-0.09659,-0.0010681,-0.20462
0.010529,-0.026703,-0.075227,0.059663,-0.049287,0.051728,0.048981,-0.18814
-0.016938,-0.05478,-0.074617,-0.33829,-0.035248,0.040131,-0.035248,-0.18601
0.020905,-0.14878,-0.053864,-0.2089,-0.0065614,0.012665,-0.048981,-0.069734
-0.081636,0.048066,-0.15518,-0.48051,0.061189,-0.015717,0.029145,-0.014801
-0.10208,0.12924,-0.10086,0.13443,0.053864,0.052644,0.24826,0.15244
-0.1033,0.032197,-0.092622,0.13321,-0.095674,0.15122,0.38254,0.25528
-0.10605,0.040436,-0.090181,-0.15213,-0.023346,0.099031,0.38926,0.20279
-0.1973,0.10727,-0.10086,-0.092622,-0.039521,0.070649,-0.10422,0.20066
-0.092317,0.051423,-0.081025,-0.066377,-0.10605,0.056306,-0.10788,0.31998
0.012665,-0.059968,-0.02884,0.015717,-0.06363,0.053254,0.79301,0.2623
0.069429,-0.059358,-0.020905,0.057527,0.010834,-0.02884,0.89616,0.064546
-0.018463,-0.11368,-0.0035096,-0.017243,0.15244,-0.26444,0.28672,-0.14237
-0.0013733,-0.12802,0.0099184,-0.41215,0.12833,-0.16403,-0.92699,-0.32334
0.038911,-0.14664,0.0062562,0.10117,0.048066,0.10971,-2.3531,-0.31174
0.035859,-0.20737,0.0038148,0.35599,0.024872,0.26352,-0.71244,-0.087434
0.045319,-0.16434,-0.081331,-0.25437,-0.052949,0.20737,0.58305,-0.076753
0.10758,-0.066987,-0.046235,-0.21897,-0.10025,0.20249,0.31144,-0.064851
-0.05478,0.032197,-0.078279,-0.18601,-0.011444,-0.58122,0.023957,-0.051728
-0.13687,0.013886,-0.063935,-0.21592,0.038911,-0.78447,-0.17319,0.04715
-0.20005,0.10849,-0.072786,0.17044,-0.049287,0.28092,0.79301,0.19883
-0.1387,0.10391,-0.086824,0.32273,0.088045,0.37278,1.4189,0.21714
0.027924,0.033722,-0.10605,0.28061,0.29007,-0.1622,1.2667,0.21378
-0.025483,0.10391,-0.14328,-0.56718,0.25467,-0.24674,0.63188,-0.045624
-0.016327,0.039521,-0.0795,-0.38193,-0.0062562,-0.041047,-0.58854,-0.18021
-0.05539,-0.050813,-0.014496,-0.12802,-0.1323,0.066987,-2.0937,-0.21683
-0.032502,-0.13962,0.021515,-0.055695,-0.075837,0.10361,-1.4934,-0.05539
0.032807,-0.15091,-0.075227,-0.086824,-0.15091,0.32914,0.083467,0.04715
0.0032044,-0.0041199,-0.099336,-0.11978,-0.16037,0.31327,0.23209,-0.00015259
-0.035859,0.015106,-0.084382,-0.15702,-0.043183,0.29221,0.26566,-0.02121
-0.032807,0.0047303,-0.046845,-0.07248,0.085908,-0.16373,0.43381,-0.025177
0.0077821,-0.00076295,-0.023041,-0.065461,0.12802,-0.97459,0.2269,-0.0090028
0.053254,-0.14206,0.076753,-0.043183,0.058137,-0.19242,0.33677,-0.00015259
0.023346,-0.17868,0.0096132,0.077363,-0.059968,0.4094,-0.22873,0.027924
-0.078889,-0.05417,-0.080415,-0.12039,-0.026398,0.085298,-0.39048,0.033722
-0.054475,-0.1268,-0.050813,0.090181,0.036774,0.11276,0.49851,0.13779
-0.014191,-0.066682,-0.11032,-0.14603,0.069123,0.1915,0.8751,0.2266
-0.092927,0.019684,-0.11673,-0.14694,0.044404,0.026398,0.8513,0.13809
-0.15793,0.11337,-0.12131,0.11521,-0.10422,-0.077974,0.098726,0.086213
-0.1207,0.066377,-0.10208,-0.12467,-0.12619,0.051118,-0.68742,0.11185
-0.099641,0.0032044,-0.052949,-0.39078,0.23484,0.31174,-0.12345,0.023651
-0.013581,-0.035859,-0.053254,-0.26719,0.098726,0.46921,-0.60838,-0.064546
0.019379,-0.009308,-0.056001,0.056001,-0.1796,-0.053864,-0.2855,-0.059968
0.0047303,0.019989,-0.068818,-0.083772,0.19028,-0.60533,-0.13626,-0.11978
0.085603,-0.01297,-0.065156,-0.084993,0.10056,-0.095979,-0.58457,-0.049287
0.084382,-0.094759,-0.061189,0.079194,-0.31205,0.39139,0.092622,-0.01236
0.027008,-0.094759,-0.06302,-0.049592,-0.27054,0.23728,0.40787,-0.056001
0.019379,-0.1088,-0.013886,-0.15061,0.019684,0.17014,0.26352,0.017853
0.051423,-0.14359,0.015717,-0.071565,0.093843,0.092317,0.20188,-0.04593
0.061799,-0.10636,-0.0383,-0.045319,0.14694,-0.79545,-0.13138,-0.032502
-0.024262,-0.099641,0.018463,0.0056458,0.18906,-1.0274,-0.19608,-0.077058
-0.083162,-0.068513,-0.010834,-0.002594,0.043488,0.64042,0.27146,-0.075837
-0.12833,0.052033,-0.087129,-0.079194,-0.011444,0.70726,0.35874,0.015106
-0.10544,-0.039521,-0.0041199,0.015717,-0.061189,0.39078,0.11093,0.061799
-0.039216,0.056001,-0.074922,0.13169,-0.020905,0.070344,-0.11734,0.11887
-0.0068666,0.092317,-0.052033,-0.10056,0.034028,-1.1766,-0.33951,0.0074769
0.017243,-0.070039,-0.12955,-0.66758,0.02945,-0.66484,-0.02945,0.034028
0.055085,0.042267,-0.15885,0.26566,-0.043488,0.72648,0.49577,0.14633
-0.070954,0.063935,-0.13443,-0.21744,0.056916,0.24277,0.32761,0.072786
-0.17044,0.035554,-0.094453,-0.1268,0.019074,0.042267,-0.085603,0.026093
-0.10391,-0.12985,-0.069123,-0.55711,-0.019684,0.019074,-0.54398,0.039826
0.015106,-0.27207,0.024567,-0.34592,0.010834,-0.04715,-0.97093,-0.016632
0.0028992,-0.16434,0.009308,1.2142,-0.01236,0.081636,-0.014191,-0.12741
-0.057832,-0.0086976,-0.030976,-0.51072,0.02945,0.11765,0.4094,-0.10819
-0.0019837,-0.0041199,-0.013886,-0.041352,-0.13321,0.17502,0.28885,0.088045
0.019989,0.032197,-0.048676,-0.020294,0.069734,0.030976,0.027008,0.081331
-0.055695,0.099947,-0.056001,-0.11398,0.18296,0.019074,-0.18112,-0.020905
-0.069734,0.050202,-0.034638,-0.079194,0.050202,0.082856,0.3856,0.11826
-0.049287,-0.09781,-0.057221,-0.11887,0.027619,0.0090028,0.54978,0.1503
-0.052033,-0.05478,-0.10056,-0.036774,0.019074,0.01297,0.34928,0.015412
-0.065156,-0.0080873,-0.11307,0.029145,-0.067292,-0.021515,-0.62943,-0.13809
-0.061189,0.05417,-0.12345,-0.11337,-0.052644,-0.12039,-1.1208,-0.17105
-0.054475,0.039826,-0.11307,-0.1735,-0.043793,-0.091402,-0.41825,-0.12924
0.0068666,0.0035096,-0.072786,-0.16495,-0.041352,-0.053559,-0.016938,-0.019684
-0.034638,0.037385,-0.049897,-0.18662,-0.027314,0.074311,0.40177,-0.0044251
-0.070649,0.012055,-0.076753,0.19394,-0.016938,0.039216,0.36606,0.02945
-0.015412,-0.11765,-0.05417,-0.28733,-0.027619,0.051118,0.36667,0.17716
-0.0068666,-0.20188,-0.028534,-0.15091,0.051728,-0.017853,0.15885,0.13169
0.065461,-0.1857,0.0041199,0.39078,-0.02121,0.086824,-0.77379,0.11917
0.08835,-0.12253,-0.00076295,-0.063325,-0.015412,0.19577,0.014191,0.059663
0.056306,-0.072786,-0.023651,-0.35019,0.094148,0.080415,0.56657,-0.17258
0.087434,-0.15549,-0.046845,-0.082856,0.061799,-0.048981,0.054475,-0.034943
0.086213,-0.121,-0.036774,0.073701,0.042267,-0.15488,-0.5156,-0.009308
0.071565,-0.22568,0.030976,0.010834,0.077974,-0.13748,-0.42924,-0.045624
0.032197,-0.084993,-0.027619,-0.29526,0.09659,-0.0047303,0.15091,0.0068666
-0.064546,0.16831,-0.13657,-1.0048,0.07187,0.089265,0.21958,-0.027008
-0.094453,0.13016,-0.077363,0.78874,-0.063935,0.10513,0.33799,0.087434
-0.11368,0.068208,-0.076753,0.4802,-0.095369,0.18143,0.50797,0.17563
-0.16068,0.075532,-0.08896,-0.27817,-0.071565,0.23972,0.63005,0.10544
-0.19059,0.12314,-0.094453,-0.069734,-0.048981,0.12863,0.70207,0.058137
-0.15366,0.074617,-0.086519,0.11093,0.013886,0.013275,0.60227,0.053254
-0.10361,-0.0016785,-0.089265,-0.21469,-0.034638,-0.23819,-0.40848,-0.0083925
-0.17411,0.11063,-0.11978,-0.29862,0.002594,-0.67002,-1.6652,-0.10361
-0.060883,-0.045624,-0.026398,0.53483,-0.017243,0.39658,-0.10819,-0.035554
-0.01236,-0.078889,-0.011749,-0.58549,-0.052644,0.68009,-0.0090028,0.092317
0.046235,-0.24033,-0.018769,-0.42069,0.10849,0.036469,-0.25864,0.13931
0.055695,-0.12161,-0.037995,0.20737,0.046845,-0.5803,0.4033,0.083772
0.073396,-0.010224,-0.024872,-0.16922,0.19699,-0.77592,0.04715,-0.024567
0.095369,-0.041657,-0.03769,-0.40696,0.18143,-0.48478,-0.35599,-0.11765
0.090181,-0.19547,0.0062562,0.16556,-0.04654,0.22995,-0.81132,-0.20127
0.063325,-0.1976,-0.012055,0.39048,-0.013581,0.34501,-0.14206,-0.1561
-0.030976,-0.038605,-0.074617,-0.60685,0.11185,0.17166,-0.026703,-0.23148
-0.048371,-0.020294,-0.030365,-0.12284,0.010834,-0.13962,0.086213,-0.13565
-0.096284,0.0077821,-0.10239,-0.05417,-0.090791,0.028229,0.027924,-0.017548
-0.17166,0.041352,-0.11734,-0.14908,-0.010224,0.034333,-0.050507,0.0028992
-0.099031,0.058442,-0.076753,0.038911,-0.093233,0.019074,0.28946,0.13046
-0.069734,0.065461,-0.10208,0.030976,-0.10758,0.0013733,0.24186,0.19486
-0.078279,0.070039,-0.10147,-0.11643,0.011139,0.00045777,0.042267,0.2565
-0.06363,0.052644,-0.094453,-0.094453,0.045014,0.36301,0.79881,0.21775
-0.031586,-0.002594,-0.059052,-0.0019837,-0.057221,0.46098,0.78599,0.16739
0.072786,-0.03006,-0.072786,-0.14725,0.015412,-0.074006,0.4979,0.10147
0.085298,-0.15702,-0.06302,-0.3331,0.019379,-0.087129,-0.11765,-0.12314
-0.00015259,-0.094453,-0.0035096,-0.3386,-0.08011,-0.17899,-1.5633,-0.1677
0.057527,-0.17197,0.051118,0.67765,-0.11429,0.078889,-0.54368,-0.037079
0.054475,-0.10544,-0.042573,0.15976,0.071565,0.046235,0.26719,-0.11337
0.042878,-0.068513,-0.032197,-0.34562,0.16922,-0.053864,-0.39841,-0.1033
-0.013581,-0.068208,-0.024872,0.076753,-0.034943,0.12802,0.23789,-0.013581
0.0068666,-0.11826,-0.038911,-0.13596,0.15488,-0.30991,0.33524,0.040436
-0.00045777,-0.0795,-0.054475,-0.067597,0.17319,-0.26932,0.27604,0.08835
-0.031891,-0.018769,-0.10819,-0.052949,-0.14847,0.27817,0.24521,0.0041199
-0.052949,-0.00015259,-0.048066,-0.13199,-0.081331,0.20249,0.25345,-0.025788
-0.078279,0.012665,-0.086213,-0.13565,-0.010529,0.1207,0.17105,-0.033417
-0.11551,0.093843,-0.12894,-0.17563,0.18509,-0.025483,-0.035859,-0.035248
-0.12589,0.07248,-0.15152,-0.35721,0.28641,-0.25437,-0.24582,-0.0065614
-0.13748,0.079805,-0.12558,-0.048981,-0.21042,-0.033417,-0.18662,0.048066
-0.10056,0.10452,-0.050813,0.045624,-0.16098,0.083162,0.13321,0.13779
-0.016327,-0.0206,0.0077821,0.0016785,-0.060883,0.10788,0.45914,0.19883
0.0053407,-0.15976,-0.052033,0.093843,-0.067292,0.21317,0.044404,0.1561
-0.014191,-0.22232,0.0077821,-0.085908,0.037385,0.17014,-0.25193,0.011444
-0.012055,-0.054475,-0.027619,-0.094759,0.034333,0.16739,0.14481,-0.028534
0.072175,-0.044709,-0.03769,-0.091402,-0.02884,0.27756,-0.39597,0.0071717
0.076448,-0.061494,0.022126,-0.084688,0.059968,-0.15793,-0.054475,-0.022736
0.017853,-0.087739,-0.0206,-0.12284,0.090181,-0.41032,-0.21653,-0.10025
0.011139,-0.11002,-0.045624,-0.060273,-0.060883,0.35843,-0.28977,-0.10422
-0.035248,-0.08835,-0.061189,-0.21225,0.069429,-0.69932,0.38071,-0.083772
-0.034943,-0.075837,-0.070954,0.027924,0.16495,-0.90532,0.49668,-0.083162
-0.055085,0.0047303,-0.11276,0.04593,-0.02121,0.58152,0.30777,0.039521
-0.12833,0.075227,-0.16648,-0.082246,-0.041047,0.17716,-0.43259,0.032807
-0.082856,-0.009308,-0.060578,-0.18173,0.039216,0.070649,-1.1015,0.0206
-0.089265,-0.092927,-0.028229,-0.014801,0.02121,0.075227,0.22507,0.084077
-0.064546,0.10788,0.019989,0.09781,-0.00015259,0.034028,0.4094,-0.014496
-0.03769,0.13657,-0.056306,-0.10758,0.036164,0.041657,-0.063935,-0.009308
-0.084077,0.040131,-0.19181,-0.28153,-0.042878,0.04715,-0.36912,0.049287
-0.045319,-0.053864,-0.09659,-0.30381,-0.095369,0.064546,-0.10727,0.10422
-0.051728,-0.041962,-0.018769,-0.15274,-0.020294,0.024567,0.024872,0.014191
-0.050507,0.028534,-0.023957,0.11307,0.01297,0.1088,0.16709,0.044099
0.0068666,-0.066377,-0.058137,-0.050202,-0.061189,0.17685,0.31632,0.11185
0.027008,-0.076448,-0.040436,-0.10452,-0.057527,0.14664,0.37522,-0.01297
0.073396,-0.10636,0.025788,0.18112,-0.044404,0.091402,0.35294,-0.039521
0.09659,-0.17594,-0.024872,-0.098726,0.0080873,0.027314,0.27817,-0.094148
0.066682,-0.16464,-0.052644,-0.23575,0.059663,-0.023651,0.33249,-0.16983
0.031586,-0.12284,-0.040436,-0.030976,0.08072,-0.005951,-0.13962,-0.17014
0.02121,-0.11154,-0.07187,-0.07126,0.076753,-0.08072,-1.3796,-0.17075
-0.009308,-0.11032,-0.10361,0.065766,0.019684,-0.062104,-0.23484,-0.010529
0.002594,-0.031891,-0.1088,0.082246,0.029755,-0.031281,0.31876,0.10758
-0.023651,0.027924,-0.052338,-0.50034,0.073396,-0.070344,0.80919,0.13931
-0.093233,0.098116,-0.11826,-0.17716,0.045319,-0.3154,-0.078279,0.071565
-0.13657,0.22843,-0.04654,0.055085,0.07126,-0.087739,-1.3957,0.02945
-0.11612,0.18418,-0.099641,0.016022,0.029755,0.17136,0.18143,0.16403
-0.092012,0.084688,-0.086824,-0.059663,-0.033722,0.33646,0.7216,0.18143
-0.0383,-0.11582,-0.058137,-0.1033,-0.11154,0.29953,0.54215,0.089876
-0.014801,-0.13962,-0.044709,-0.089876,-0.10849,0.11704,0.35721,0.067597
-0.024872,-0.12345,-0.02182,-0.17014,-0.049592,-0.1265,0.11765,-0.01236
-0.051728,-0.15885,-0.035859,-0.02945,0.012665,-0.62852,-0.68986,-0.12009
-0.053254,-0.11582,-0.014801,-0.14939,0.027924,-0.043183,-0.21927,-0.016327
-0.033112,-0.072175,0.0022889,-0.23301,0.040131,0.17105,0.24216,0.017548
-0.018769,-0.047761,-0.023041,0.00045777,0.051423,0.020294,-0.11917,-0.075837
0.016632,-0.038605,-0.032502,0.035859,0.13565,-0.02182,-0.10605,-0.00076295
0.0016785,-0.021515,-0.074311,-0.0022889,-0.039216,0.16129,-0.49119,-0.025177
-0.041352,0.024567,-0.08072,-0.81834,-0.14603,-0.017853,-0.45121,-0.095674
-0.017243,-0.0096132,-0.074617,-0.47288,0.098726,-0.32181,0.26505,-0.029145
-0.043183,-0.012665,-0.052949,1.6753,0.06363,0.065766,0.74968,0.017243
-0.12589,0.047456,-0.066682,-0.262,0.11032,0.13596,0.37461,0.040131
-0.11185,0.12436,-0.16709,-0.18326,-0.17044,0.29038,0.69535,0.23392
-0.090791,0.087739,-0.11978,-0.15335,-0.048676,0.018158,0.27878,0.1442
0.049287,-0.0038148,-0.0972,-0.18967,-0.077974,-0.02884,-0.15946,0.098421
-0.053864,0.015412,-0.096895,-0.41032,-0.071565,-0.15671,-1.0561,0.032807
-0.024262,-0.04654,-0.045624,-0.10391,0.1387,-0.34836,-1.1882,-0.040436
0.095674,-0.1857,-0.01236,-0.3331,0.16281,0.20615,-0.034333,0.018769
0.11246,-0.35508,0.099031,-0.1207,-0.096284,0.073091,0.23362,-0.032502
0.068513,-0.43961,0.084077,0.25772,-0.025483,0.022126,0.14939,-0.046845
0.0080873,-0.048676,-0.048981,0.32609,0.16617,0.065766,0.45182,-0.052033
0.0080873,0.041962,-0.051728,-0.059663,0.085908,0.073091,0.53788,-0.048676
0.033417,0.027924,-0.05478,-0.61357,0.070649,0.0206,0.34989,-0.015717
-0.026703,0.095369,-0.067292,-0.24521,-0.021515,0.082246,0.58091,0.040131
-0.041352,0.0032044,-0.058137,0.82689,-0.08896,0.072175,-0.26352,0.012055
-0.074006,0.021515,-0.15122,-0.30228,0.103,0.025483,0.051423,-0.037079
-0.039521,-0.0028992,-0.094148,-0.50706,0.17319,0.06302,0.8513,0.025788
-0.10178,0.050507,-0.085908,0.058137,0.029145,-0.005951,-0.32731,-0.084993
-0.18296,0.13748,-0.11856,0.019684,-0.11765,0.040131,-1.566,-0.091402
-0.1677,0.075532,-0.069429,-0.059358,-0.22477,-0.067292,0.084382,0.09659
-0.13748,0.076753,-0.073396,-0.11643,-0.12955,-0.091707,0.103,0.15274
-0.15152,0.044404,-0.093233,-0.14084,0.012665,0.11704,-0.42893,0.040131
-0.11521,-0.11368,-0.059052,-0.11948,-0.037079,0.17533,0.47227,-0.015412
-0.019074,-0.17563,-0.030365,-0.083467,-0.0047303,-0.20127,0.19242,-0.048371
0.1207,-0.20768,-0.0086976,-0.11063,0.076143,-0.32609,-0.51713,-0.028229
0.13474,-0.15061,0.016022,-0.2092,0.061189,-0.057527,-0.085298,-0.024262
0.12314,-0.057832,0.013886,0.34073,0.0050355,0.016632,0.027924,-0.0053407
0.10483,-0.050507,0.005951,-0.067292,0.052338,0.053559,0.17655,0.030976
0.078279,-0.11948,-0.0022889,-0.15854,0.031586,0.23209,-0.083162,-0.016327
0.005951,-0.091402,-0.078889,-0.042573,-0.054475,0.43259,0.13291,-0.01297
-0.039216,-0.08011,-0.053254,0.01297,-0.0071717,0.1268,0.24613,0.0016785
-0.06363,-0.045319,-0.068208,-0.10544,0.063325,0.044404,0.042267,0.0013733
-0.085908,0.033112,-0.11063,-0.23148,0.061799,0.16739,0.37858,0.019684
-0.032502,-0.0035096,-0.1091,-0.19699,0.14023,-0.48966,0.21988,0.032807
0.0019837,0.058747,-0.15763,-0.11795,0.12161,0.1088,-0.05539,0.012665
-0.00076295,0.05417,-0.12711,0.059968,0.023651,-0.26871,-0.43259,-0.040742
-0.039216,0.0071717,-0.015412,0.13169,0.05539,-1.2367,-0.4332,-0.011139
-0.059052,-0.011749,-0.085298,-0.10636,-0.19181,0.25223,0.40848,0.023041
-0.061494,-0.00015259,-0.059052,-0.23484,-0.30198,0.1854,-0.077058,-0.00045777
-0.061189,-0.043488,-0.050813,-0.066987,-0.024872,0.074922,-0.83055,-0.040742
-0.050813,-0.070344,-0.03006,-0.071565,0.11398,0.19913,-0.65019,-0.0013733
-0.078889,0.029755,-0.047761,-0.27207,0.065766,0.15,-0.12863,0.052949
-0.063935,-0.019379,-0.014801,-0.11887,0.039521,0.13779,0.38682,0.017548
-0.028534,-0.041657,0.0019837,-0.0090028,0.0010681,0.11521,0.36881,-0.04715
-0.010224,-0.10758,-0.015717,-0.0074769,-0.0071717,0.13291,0.26596,-0.059663
0.0019837,-0.13138,-0.038911,0.0010681,0.014191,0.12955,0.34073,-0.039826
0.013275,-0.058442,-0.043183,0.0028992,0.093843,0.038605,0.3209,0.045624
-0.024872,-0.066987,-0.055695,-0.10147,0.10605,-0.023041,0.06363,0.010834
0.025788,-0.056611,-0.058747,-0.076448,0.045014,-0.056306,-0.093843,-0.0050355
-0.048676,0.10056,-0.12039,-0.10056,0.010529,-0.019379,-0.10239,0.030976
-0.043183,0.060273,-0.098421,-0.1149,-0.034333,0.082551,0.019379,0.063325
-0.052949,0.056001,-0.098726,-0.10971,-0.086213,0.06302,0.26383,0.090791
-0.041657,0.022126,-0.098421,-0.061189,-0.050507,0.0022889,0.19364,0.12253
0.019379,-0.06363,-0.10147,-0.068208,-0.0013733,0.031281,0.34531,0.14481
0.093538,-0.1268,-0.12253,-0.16983,0.00045777,0.11948,-0.19486,0.00045777
0.14603,-0.23453,-0.055085,-0.20493,-0.049897,0.13565,-0.53452,-0.034638
0.012665,0.0080873,-0.073091,-0.1445,-0.08011,0.079194,0.098116,-0.0090028
-0.043183,-0.028229,-0.032197,-0.060578,-0.034943,-0.040131,-0.78569,-0.095674
-0.088045,-0.052644,0.014191,-0.016022,0.0795,-0.66941,-0.42496,0.030976
-0.1564,-0.039521,0.042878,0.075532,0.041962,-0.13291,0.13779,0.056611
-0.18265,-0.018769,0.084077,0.20066,0.0206,0.32334,0.41001,-0.039216
-0.17227,-0.076143,0.0016785,0.037079,0.075227,-0.024262,0.4744,-0.022736
-0.15396,-0.018769,-0.035554,-0.093233,0.077974,0.14878,0.6038,-0.055085
-0.10056,-0.068818,-0.059052,-0.099947,0.043488,0.0083925,-0.16312,-0.11185
-0.045624,0.019989,-0.12985,-0.12894,-0.0206,-0.15,-0.85618,0.068208
-0.030365,0.014496,-0.10269,-0.11917,-0.0041199,-0.069123,-0.35538,0.1622
-0.063325,0.054475,-0.093233,-0.13687,0.081331,0.051423,0.21866,0.15854
-0.048981,0.00045777,-0.14511,-0.23392,0.046845,0.069123,0.30686,0.18479
-0.019074,-0.023651,-0.11887,-0.27726,-0.0065614,0.066682,0.002594,0.16068
-0.0053407,-0.046235,-0.033722,0.35172,-0.055085,0.038911,-0.11856,0.11917
-0.049592,0.048676,-0.065156,-0.15152,-0.032502,-0.027008,0.024872,0.0090028
0.012055,-0.017853,-0.082856,-0.18967,-0.073396,-0.12253,0.0041199,-0.0065614
0.058442,-0.053864,-0.062104,-0.15915,-0.068513,-0.050202,0.056611,-0.049897
0.059663,-0.030976,-0.013886,-0.072175,0.019989,0.12985,0.011444,-0.12467
0.083772,-0.0041199,-0.06302,-0.0035096,0.029755,0.37125,0.032807,-0.10239
0.026703,-0.045624,-0.056611,-0.16892,0.013275,0.098421,0.024872,-0.085298
-0.022431,-0.059358,0.0016785,-0.21958,-0.043183,-0.14176,0.080415,-0.018769
0.014191,-0.24552,0.018158,0.14694,0.072175,-0.016327,0.31815,0.098421
0.045319,-0.26902,-0.029145,-0.49058,0.13382,0.037995,0.49393,-0.045014
0.057832,-0.058747,-0.034943,0.27634,-0.086824,0.08957,0.44572,-0.21897
-0.012665,0.022126,-0.028229,0.54429,0.025177,-0.092012,-0.21469,-0.27359
-0.034943,0.059968,-0.10971,-0.27176,0.0086976,-0.11612,-1.3106,-0.12131
0.029145,0.017548,-0.099641,-0.12528,-0.26474,0.27085,-0.099641,0.068208
0.045014,0.011444,-0.0972,-0.11276,-0.066987,0.31724,1.089,0.15061
-0.027619,-0.022431,-0.082856,-0.0206,0.10605,0.18296,0.89403,0.14481
-0.061799,-0.1146,-0.0041199,-0.048676,0.32975,-0.076448,0.16648,0.14084
-0.045319,-0.12467,-0.081331,-0.36973,0.46616,-1.0115,-1.136,0.053559
-0.05539,-0.055695,-0.042573,0.023651,-0.12985,-0.57023,-0.92027,-0.10117
-0.15824,0.12436,-0.13748,-0.027314,-0.04654,0.17441,-0.48478,-0.12833
-0.17227,0.10269,-0.07187,-0.16281,-0.022431,0.08896,-0.21469,-0.033722
-0.1326,0.0071717,-0.023957,-0.037079,-0.1564,0.27176,0.46433,0.10788
-0.059052,-0.11154,-0.0053407,-0.10483,-0.10544,0.086824,0.23087,0.078584
-0.022126,-0.103,-0.034638,-0.26505,-0.041962,0.00076295,0.016938,0.033112
-0.053559,-0.048981,-0.068208,0.035554,-0.14054,0.064546,-0.47715,0.014801
-0.075227,0.037995,-0.062715,0.37125,-0.13535,0.029145,-0.0044251,0.061189
0.052338,-0.10575,-0.015412,-0.31662,0.27909,0.077668,0.57542,0.12039
0.17105,-0.18814,0.049897,-0.25101,0.26017,0.24552,0.46372,0.07248
0.1149,-0.10086,-0.096284,-0.19303,0.023346,0.34531,0.50767,-0.027314
-0.01297,0.0074769,-0.11032,-0.13565,0.019379,0.12802,0.32151,-0.12863
-0.12345,0.073701,-0.10483,-0.07248,-0.023346,-0.42374,-0.59983,-0.23087
-0.14176,0.063325,-0.14084,-0.17655,-0.032807,-0.54704,-0.8333,-0.074922
-0.12955,0.029755,-0.099031,-0.23758,-0.033417,-0.030976,-0.58183,0.066072
-0.074006,-0.02884,-0.024872,0.11582,-0.056916,0.20584,0.3801,0.095674
-0.044709,-0.019684,-0.066987,0.14237,-0.052949,0.16739,0.87602,0.11643
0.052949,-0.11856,-0.12772,-0.085908,-0.022736,0.10117,0.58305,0.14054
0.085908,-0.10208,-0.01297,-0.060273,-0.0062562,0.0083925,0.1207,0.070649
0.05539,-0.030976,-0.014801,-0.066682,0.011139,-0.066072,-0.70939,-0.041657
0.044099,-0.057527,-0.014496,0.10605,0.015717,-0.019684,-1.0143,-0.098116
-0.012055,0.051728,-0.05417,0.024567,0.051118,-0.06302,-0.28,-0.05539
0.040131,-0.024872,-0.037995,-0.27451,0.09659,-0.067903,-0.2388,0.0056458
0.070039,-0.12772,-0.019074,-0.14359,0.024872,0.05417,-0.13352,0.056306
0.030365,-0.0044251,-0.077058,-0.095369,0.0077821,0.18082,0.23484,-0.023041
-0.015717,-0.059663,0.0065614,-0.053559,-0.055085,0.71092,0.91142,-0.057527
-0.031281,-0.081941,0.013581,-0.10849,-0.084688,0.63767,0.76402,-0.018463
-0.10117,-0.050202,-0.035859,-0.11551,-0.048371,0.38529,0.58488,0.009308
-0.099336,0.024262,-0.14389,0.16617,0.0096132,-0.3859,0.1622,0.0032044
-0.1445,-0.0016785,-0.093538,-0.28428,0.15732,-1.8441,-0.47074,-0.044709
-0.19486,-0.0068666,-0.11429,-0.17563,0.11856,-0.62455,0.19913,-0.0074769
-0.19821,0.0041199,-0.11978,-0.061799,-0.070039,0.77195,-0.59861,0.057832
-0.21012,0.10056,-0.13474,-0.096895,-0.06363,0.050813,-0.95598,0.076143
-0.17868,0.060273,-0.072175,-0.14969,-0.038605,0.13382,-0.027008,0.22812
-0.10819,0.010224,-0.041047,-0.62119,-0.062104,0.35904,0.10788,0.33219
-0.037385,-0.074617,-0.016632,1.1037,-0.014191,0.19944,-0.0383,0.1326
0.018158,-0.13748,-0.050813,-0.30961,0.11398,0.19089,0.4564,0.019989
0.059358,-0.018769,-0.051118,-0.46677,0.096284,-0.16709,0.50065,-0.057832
0.11856,-0.046235,-0.023041,-0.049592,-0.060883,-0.55558,0.2153,-0.11032
0.16648,-0.14847,-0.01297,-0.010529,0.011139,-0.090181,-0.39109,-0.1619
0.16464,-0.16831,0.024262,0.002594,-0.032807,0.19181,-0.094453,-0.15335
0.095674,-0.091402,0.02182,0.086213,0.033722,0.02884,0.38376,-0.14145
0.020905,-0.032502,-0.030671,0.05478,0.10544,0.103,-0.053254,-0.11215
-0.014801,-0.016327,-0.088655,-0.36851,0.21347,0.0206,-0.65293,-0.11002
-0.01236,-0.0795,-0.061799,0.14176,0.11093,0.033417,-0.38224,-0.07126
-0.036469,-0.075837,-0.059052,-0.087739,-0.13474,0.10269,-0.085908,-0.055085
-0.064851,-0.0016785,-0.11978,-0.20005,0.0050355,-0.020905,-0.22049,-0.061189
0.0032044,-0.077363,-0.068513,0.095674,-0.093843,0.093233,0.31296,0.075837
-0.031891,-0.024262,-0.094759,-0.13474,-0.061799,0.034638,0.30045,0.067903
-0.10208,0.1033,-0.12467,-0.21012,0.0071717,-0.0062562,0.18479,0.12863
-0.15702,0.18784,-0.13352,-0.058137,-0.08072,0.086824,0.29862,0.18479
-0.17594,0.13809,-0.073091,-0.0032044,-0.0062562,0.0013733,-0.22324,0.1976
-0.095674,0.069123,-0.077363,-0.045624,0.10971,-0.027619,-0.041352,0.28855
-0.057832,0.01236,-0.062715,-0.12589,0.025483,0.033112,0.663,0.19638
-0.088045,-0.057527,-0.027008,-0.15671,-0.057527,0.0086976,0.3505,0.10239
-0.040436,-0.18814,-0.019074,-0.1387,-0.083467,-0.087434,-0.035248,0.0383
0.009308,-0.27054,0.037995,-0.10452,-0.0083925,-0.18296,-0.79423,-0.055695
0.10636,-0.41703,0.018463,-0.031586,-0.0096132,0.072175,0.24399,-0.0050355
0.056001,-0.088655,-0.092012,-0.064851,-0.014191,0.36149,0.82567,-0.11307
0.02884,0.081331,-0.090791,-0.033417,0.084077,0.60624,0.37156,-0.18326
-0.0053407,0.061799,0.0062562,0.087129,0.098116,0.2443,-0.83909,-0.13321
-0.050813,0.015412,-0.040436,0.070039,0.089265,-0.13779,-0.27909,-0.10178
-0.00076295,-0.11154,-0.030671,-0.1207,0.085908,-0.18418,0.47013,-0.020294
0.090486,-0.18875,-0.041657,-0.16983,0.0074769,-0.48692,0.079805,-0.059968
0.010529,-0.0096132,-0.10727,-0.21622,-0.068513,-0.19608,-0.21195,-0.10117
-0.019074,0.14878,-0.10605,-0.11276,-0.1735,0.37613,-0.74113,0.040131
-0.11948,0.13046,-0.099336,-0.0080873,-0.022431,0.27543,-0.73533,0.13413
-0.10544,0.048371,-0.12314,0.03769,0.1854,-0.083162,0.32822,0.22995
-0.12924,0.093538,-0.08896,-0.092622,0.13809,-0.76646,0.47715,0.14054
-0.081331,0.0099184,-0.066987,-0.16068,0.00076295,0.1265,0.66972,0.095369
-0.039216,-0.022431,-0.070954,-0.19333,-0.058747,0.71458,0.97642,0.087434
0.078584,-0.068208,-0.063325,-0.18662,-0.037079,-0.065156,0.76097,-0.08011
0.074006,-0.18601,-0.005951,-0.20279,0.074006,-1.1369,-0.48936,-0.29129
0.041657,-0.23148,0.0062562,0.32609,0.16464,-0.51926,-1.9921,-0.30716
-0.067903,0.019379,-0.032197,-0.038911,0.089265,0.16129,-0.70909,-0.17319
0.0065614,-0.15671,0.048676,0.19852,-0.15671,0.21714,0.43351,0.0053407
0.045624,-0.1503,-0.056611,-0.25101,-0.10178,0.15549,0.46708,0.086213
0.061189,-0.068208,-0.093233,-0.10941,0.11429,0.090791,0.26535,0.01297
-0.024872,0.009308,-0.082551,-0.5449,-0.085603,0.168,0.36545,-0.027008
-0.1503,0.0795,-0.10697,0.1799,-0.095674,0.095979,0.009308,-0.015412
-0.21103,0.12589,-0.12619,0.37827,0.07126,0.10697,0.009308,0.11582
-0.16403,0.10971,-0.086824,-0.3801,0.063935,0.15091,0.51682,0.28214
-0.067292,-0.0077821,0.034943,-0.10086,-0.068513,0.13321,0.21927,0.25406
-0.05539,-0.015717,-0.051728,-0.030976,0.011444,-0.02121,-0.44541,0.12222
-0.066072,0.016632,-0.14481,-0.22324,0.12772,-0.11978,-0.19181,0.056001
-0.10544,-0.06363,-0.078279,-0.18662,-0.010529,0.042878,0.42161,0.11307
-0.10605,-0.08835,-0.033112,0.12589,-0.12619,0.093538,0.39933,0.04715
0.018158,-0.10178,-0.040742,0.0068666,-0.052033,0.10605,0.24216,-0.014191
0.081941,-0.1265,-0.010224,-0.33555,0.0016785,0.30289,-0.015412,-0.086213
-0.034333,-0.025788,-0.033112,-0.16953,-0.12222,0.56718,0.40635,-0.095369
-0.031586,0.039216,-0.047761,-0.3975,0.048981,0.32029,0.04715,-0.029145
0.18265,-0.1384,0.0038148,0.73411,0.06424,0.13748,-0.78569,0.013886
0.20462,-0.18143,-0.056611,-0.037079,-0.066072,-0.7274,-0.076753,-0.11734
0.13626,-0.026703,-0.069429,-0.2681,0.16648,-1.4617,0.13016,-0.094148
0.027924,-0.068208,-0.040436,-0.14694,0.19577,0.093538,0.076753,0.042267
-0.020905,-0.1564,-0.0044251,-0.048676,0.14664,0.46891,-0.40909,-0.069429
-0.078889,-0.049897,-0.087129,-0.063325,0.094148,0.079194,-0.68925,-0.073091
-0.11063,0.077668,-0.13107,-0.21317,-0.0022889,-0.093233,-0.019074,0.019684
-0.1033,0.079805,-0.11978,-0.075227,-0.13657,0.20615,-0.27329,0.085908
-0.091096,0.13016,-0.11124,-0.078584,-0.098421,0.20432,-0.063935,0.099947
-0.059358,0.18753,-0.064851,-0.21073,-0.03769,0.17166,0.41337,-0.031891
-0.10636,0.11826,-0.10819,0.057527,-0.063935,0.0041199,0.25528,-0.027314
-0.11398,-0.039826,-0.078889,-0.048676,0.023041,-0.39048,0.16098,0.0047303
-0.034943,-0.13016,0.0041199,0.15152,0.0068666,0.22354,0.22873,0.045624
0.041047,-0.17624,0.024262,-0.13657,-0.034638,0.10483,0.10452,0.059358
0.095369,-0.16831,-0.025483,-0.52049,0.00076295,-0.58946,-0.12375,-0.012055
0.047761,-0.1857,-0.038911,0.067903,-0.063325,-0.02884,-0.026703,-0.027314
0.019684,-0.22568,-0.0090028,0.090791,0.059968,0.45396,0.06363,0.050507
-0.018463,-0.02884,-0.036164,-0.32303,0.22538,0.0062562,0.38346,0.062104
-0.0068666,-0.031891,0.022126,0.13596,0.061189,0.079805,0.48356,0.019379
-0.015412,-0.14969,-0.0044251,0.41123,0.061799,0.032502,0.0035096,-0.11032
-0.13016,0.04593,-0.10727,0.10025,0.059663,-0.084077,-1.331,-0.2092
-0.1323,0.080415,-0.098726,-0.18753,0.016938,-0.13687,-0.57572,-0.034638
-0.11734,0.092012,-0.14755,-0.21805,0.05417,-0.083467,0.2031,0.0206
-0.14176,0.10971,-0.11826,-0.29313,0.060578,0.10269,0.30045,0.10025
-0.12039,0.14206,-0.1564,-0.1973,-0.070954,0.1622,0.81376,0.16342
-0.11002,0.13565,-0.14633,-0.15305,-0.11734,0.18631,0.5687,0.18051
-0.081636,0.12222,-0.15457,-0.21561,-0.07126,0.08957,0.11673,0.15518
-0.13413,0.1445,-0.069429,-0.16892,-0.11246,0.0022889,-0.7219,-0.010224
-0.040742,0.041657,-0.005951,-0.10269,-0.14572,0.16007,-0.15763,0.0383
0.034943,-0.12558,0.10727,-0.040131,-0.073396,0.093233,0.13474,0.10056
0.099641,-0.39292,0.084993,-0.039216,0.002594,-0.17777,-0.37766,0.013886
0.1323,-0.43351,0.030671,-0.017243,0.056916,-0.19821,-0.24369,0.026093
0.14725,-0.37797,0.022431,0.11398,0.095674,-0.091402,-0.21927,-0.031281
0.12985,-0.22873,-0.075837,-0.015412,0.10269,-0.015106,0.20768,-0.055085
0.13504,-0.2089,-0.064546,-0.074617,0.14572,0.019379,0.40726,-0.095979
0.085908,-0.03769,-0.056611,-0.069123,0.12436,0.13291,0.37247,-0.10208
0.014801,0.012055,-0.039826,-0.0035096,0.085298,0.11185,0.51652,-0.077363
0.017548,-0.0035096,-0.069123,0.12924,-0.062715,0.20706,1.162,0.013581
-0.08011,0.12955,-0.11429,-0.10452,-0.19242,0.093538,0.36606,-0.023651
-0.11948,0.11002,-0.15579,-0.3801,0.0795,-0.57847,-1.043,-0.070039
-0.16983,0.088045,-0.098726,-0.15793,0.10758,-0.39139,-2.3305,-0.057832
-0.2211,0.15396,-0.10361,-0.0090028,-0.066987,0.35233,-0.4686,0.0041199
-0.18906,0.16831,-0.10361,-0.15732,-0.13321,0.56596,0.9691,0.07248
-0.15702,0.15183,-0.11612,-0.10666,-0.14847,-0.054475,0.13382,0.083772
-0.13321,0.10056,-0.079194,-0.026703,0.035554,-0.29374,-0.42008,0.10025
-0.052644,0.019379,-0.0028992,-0.22293,0.27146,-0.081636,-0.08072,0.12375
0.083467,-0.087739,0.010529,-0.066377,0.09781,0.098726,0.55741,0.070039
0.077668,-0.21683,-0.0080873,0.0035096,-0.12619,0.20981,0.51499,0.0077821
0.11246,-0.21988,0.010224,0.010529,-0.053864,0.069123,0.23362,0.059663
0.13809,-0.2327,-0.02182,-0.050813,0.050202,-0.025788,0.36637,0.020905
0.11795,-0.16617,-0.046845,-0.098421,0.06302,0.009308,-0.21408,-0.097505
0.0038148,-0.069429,-0.048371,-0.3151,0.03006,0.032807,-0.90806,-0.23362
0.0077821,-0.044709,-0.034028,-0.18692,-0.012665,-0.34623,-0.851,-0.23972
-0.026703,-0.070649,-0.08072,0.14389,-0.10178,0.15671,0.29831,-0.025788
-0.08896,-0.015412,-0.060273,-0.13199,-0.072786,0.29404,0.10025,0.013886
-0.13443,0.045319,-0.076753,0.42283,0.0096132,-0.40757,-0.12589,0.072175
-0.19791,0.074617,-0.14115,-0.49516,0.24887,-0.46769,0.42161,0.18143
-0.21897,0.14572,-0.10269,-0.22904,0.39689,0.083162,0.69627,0.27665
-0.15793,0.078279,-0.09659,-0.43626,-0.11978,0.21714,0.46647,0.2388
-0.10056,0.041962,-0.081025,0.27665,-0.20096,0.093538,-0.14145,0.08011
-0.087739,0.0044251,0.0019837,0.29374,0.0032044,-0.074006,-0.9688,-0.0068666
-0.034943,-0.062104,-0.079194,-0.15793,-0.012665,-0.025788,-0.41062,0.017853
0.0096132,-0.084993,-0.091402,0.085603,0.02121,0.010834,0.085908,0.0206
0.06424,-0.11276,-0.018769,-0.15335,0.019074,0.020905,0.01297,-0.087434
0.057221,-0.066072,-0.0056458,-0.22293,-0.085603,0.16892,0.37064,-0.16251
0.06302,-0.049592,-0.014496,-0.016632,-0.048371,0.12406,0.20676,-0.19425
0.091707,-0.083772,0.030671,-0.070649,-0.031586,0.060883,0.015412,-0.095674
0.11978,-0.17044,0.023651,0.20645,-0.037385,0.011139,-0.10575,-0.064851
0.13657,-0.18601,-0.0096132,0.094759,0.018158,-0.0074769,0.26413,0.067597
-0.031891,-0.037385,-0.060578,-0.42191,0.11887,0.078584,0.22782,0.073396
0.017548,-0.15946,-0.052338,-0.045624,0.093538,0.19608,0.058137,0.11551
0.059663,-0.18143,-0.057832,0.25437,-0.017243,0.25254,-0.26047,0.12924
-0.023041,0.083467,-0.13565,-0.60227,-0.037079,0.58244,-0.13474,-0.072786
-0.1323,0.16312,-0.13962,-0.30655,0.0099184,0.48875,0.59983,-0.010529
-0.18173,0.17533,-0.1088,-0.0041199,-0.059663,-0.11154,0.43107,0.011444
-0.11795,0.069734,-0.10117,0.056916,-0.026398,-0.25071,-0.038605,0.041352
-0.012055,-0.066987,-0.12161,-0.01236,0.086213,-1.4949,-0.78782,0.079805
0.0010681,-0.15183,-0.077363,0.096284,0.077974,-1.2471,-0.58488,0.005951
-0.083772,-0.07187,-0.042267,-0.12039,-0.012055,0.6746,0.33066,0.017243
-0.045624,-0.024872,-0.046235,-0.23606,0.11002,0.22232,0.47105,0.091707
-0.0071717,-0.070649,-0.00015259,-0.11246,0.081941,-0.027924,-0.095369,0.023041
-0.0383,0.0019837,-0.005951,-0.046235,-0.094148,0.2742,-0.5922,-0.1387
-0.012055,0.0972,-0.023651,-0.062409,-0.053559,0.14969,-0.18296,-0.085908
0.023957,-0.0206,-0.054475,-0.33249,0.010834,0.093538,0.0090028,-0.069123
-0.016938,0.031891,-0.089265,-1.1705,0.013886,0.054475,-0.024872,-0.15061
-0.030976,-0.11002,-0.013886,1.4668,-0.11215,0.11124,0.1677,-0.14481
-0.090181,-0.047456,-0.034028,0.37461,-0.030976,0.091707,0.15518,-0.024262
-0.095369,-0.0074769,-0.024567,-0.46281,0.25803,-0.041657,-0.16556,0.12314
-0.027314,-0.055695,-0.074922,-0.30411,0.11673,0.077058,0.02884,0.18051
-0.081025,-0.11765,-0.12467,-0.18936,-0.00015259,0.093843,0.18173,0.10575
-0.10849,-0.05539,-0.10147,-0.10147,-0.12253,0.10544,0.31662,0.13626
-0.092317,0.0056458,-0.098421,-0.03006,-0.14145,0.13138,0.50645,0.18021
-0.028534,0.013886,-0.103,-0.036469,-0.063325,0.09781,0.57084,0.19089
-0.0044251,0.047456,-0.042573,-0.050202,0.090181,0.010529,0.1207,0.19364
0.029145,0.061494,-0.094759,-0.12039,0.1146,-0.082246,-0.94469,0.058137
0.11978,0.049897,-0.066682,-0.1091,-0.019684,-0.035859,-0.92576,-0.019379
0.095674,0.068208,-0.040131,-0.027619,-0.08072,0.12406,0.023957,-0.06363
-0.073701,0.033722,-0.019989,-0.020905,-0.035248,0.12741,0.66087,-0.074922
-0.074006,-0.07187,-0.014496,-0.035554,0.031281,0.11978,0.71,-0.0028992
0.019379,-0.36973,0.10483,-0.032502,-0.034943,0.36301,0.5565,0.034943
0.031891,-0.49454,-0.018769,-0.01236,-0.015717,0.04654,-0.33799,-0.10544
0.1265,-0.36027,-0.030365,-0.15152,0.052949,-0.1033,-0.44785,-0.15427
0.081941,-0.08957,0.066072,-0.12284,0.084688,-0.38834,-0.64134,-0.20432
0.01297,-0.10147,0.022126,-0.17411,0.14939,-1.1424,-0.41154,-0.23758
-0.034638,0.022126,-0.13626,-0.16587,0.11398,-0.25162,0.067903,-0.15885
-0.073701,0.088045,-0.16342,-0.059663,0.041047,0.39231,-0.042878,-0.07126
-0.098116,0.12222,-0.13352,0.085603,-0.0010681,0.20035,0.24704,0.045014
-0.17838,0.14878,-0.14908,0.103,-0.15549,0.27695,0.1622,0.16068
-0.15763,0.13535,-0.15763,-0.13138,-0.11215,0.14664,0.33005,0.2681
-0.16648,0.18723,-0.19303,-0.10941,0.079194,-0.15488,0.040436,0.25132
-0.16648,0.12192,-0.0096132,-0.15732,0.045624,0.009308,0.55436,0.21256
-0.070649,-0.032502,0.018158,-0.18296,-0.041047,0.10361,0.44388,0.23514
-0.052644,-0.13474,0.011749,-0.16403,-0.035859,0.24582,-0.8394,0.092622
0.043183,-0.15152,-0.068818,-0.11368,0.02945,0.52537,-0.90867,-0.042573
0.034333,0.090181,-0.06302,-0.11368,0.045624,-0.053559,-0.31571,-0.095979
0.07126,-0.0035096,0.012665,-0.034943,0.025483,-0.49882,-0.23514,-0.12741
0.045624,-0.039826,0.017243,0.096284,0.00076295,-0.090181,0.11887,-0.099031
0.030365,-0.092012,-0.033112,0.11093,0.046235,0.0062562,0.14298,-0.097505
0.059663,-0.14878,-0.025788,0.017548,0.025483,-0.0013733,0.19059,-0.091096
0.0035096,-0.14603,-0.033722,-0.028534,0.012055,-0.036469,0.022736,-0.16953
-0.036774,-0.11887,-0.12467,-0.3267,0.039216,0.065461,-0.030976,-0.13382
-0.070954,-0.011749,-0.11521,-0.11124,-0.033417,0.34073,0.17655,-0.055085
-0.037079,0.047761,-0.12711,-0.030671,-0.032502,0.31632,0.35752,0.07248
0.0032044,-0.039521,-0.103,-0.33921,0.016938,0.21469,0.48356,0.15335
-0.029145,-0.024567,-0.073091,-0.16007,-0.074922,0.087434,0.41306,0.15915
-0.051728,-0.068513,-0.049897,-0.07126,0.0071717,-0.75517,-0.4741,0.17929
-0.04593,0.040742,-0.042878,-0.121,0.12161,-1.0997,-0.78264,0.10086
-0.065461,0.033112,-0.012055,-0.087129,-0.031281,0.40238,0.5684,0.051423
0.025788,-0.024872,-0.1033,-0.10941,-0.14054,0.56931,0.97459,0.085603
0.0065614,-0.050813,-0.010834,0.010529,-0.081636,0.36118,0.4155,0.023346
-0.0019837,-0.13565,0.020905,0.24949,0.0016785,0.33066,0.079805,-0.026703
0.012665,-0.12345,-0.019684,0.067903,0.16007,-0.037385,-0.47074,-0.10086
0.077974,-0.10544,-0.081331,0.016632,0.15702,-0.27024,-0.72099,-0.10544
0.039216,-0.08072,-0.056001,-0.14267,0.091707,-0.39414,-0.57603,-0.077668
-0.043793,-0.034028,-0.010224,-0.50187,0.12284,-0.50858,-0.60655,-0.13046
-0.022431,-0.08011,0.0080873,0.18814,-0.085603,0.49119,0.36484,-0.10636
-0.033722,-0.054475,-0.070954,0.23606,-0.11124,0.37827,0.56596,-0.092012
-0.04715,0.035554,-0.103,-0.73167,0.13657,0.00076295,0.027008,0.039521
-0.11368,0.062409,-0.070344,0.66758,0.074311,-0.67155,-0.84123,0.11765
-0.20432,0.21561,-0.13169,-0.41459,0.24155,-1.2477,-0.57847,-0.081331
-0.099947,0.0099184,-0.11093,-0.27848,-0.013581,0.61509,0.41184,0.0096132
-0.050813,-0.092622,-0.099336,0.037385,-0.14359,0.53513,0.44388,0.077974
-0.028229,-0.050813,-0.07248,-0.031586,-0.11429,0.12161,0.43534,0.12711
-0.083772,0.076143,-0.086519,-0.39811,-0.08957,0.21836,0.26749,0.079194
-0.10452,0.030671,-0.0795,-0.098421,-0.085603,0.22324,0.61662,0.096284
-0.025788,-0.027619,-0.064851,-0.067292,-0.11154,0.12253,0.12619,0.10849
-0.025483,-0.072175,-0.023041,-0.042573,-0.090791,0.053254,-0.91356,0.035248
-0.0035096,-0.055695,-0.010224,0.0080873,-0.0065614,0.016632,-0.24247,0.022736
0.016022,-0.063325,-0.016022,0.036164,0.065156,-0.092317,-0.10208,0.025177
0.013275,-0.10178,-0.010529,-0.077363,0.059663,-0.041352,0.15854,0.05417
0.04654,-0.11246,-0.0090028,-0.11063,0.067597,0.020294,0.32059,0.023651
0.07187,-0.11826,-0.016022,-0.030365,0.048981,0.12955,0.21347,-0.05478
0.010834,-0.092317,-0.026398,-0.059663,0.025483,0.092317,-0.16983,-0.16464
-0.023346,-0.08011,-0.072786,-0.11154,0.02121,0.0080873,-0.36698,-0.12985
0.018158,-0.068513,-0.068818,-0.19883,-0.064851,0.032807,0.024872,0.057527
-0.10971,-0.0013733,-0.098116,0.066987,0.18662,-0.02884,0.33188,0.077974
-0.1738,0.027924,-0.13687,-0.52415,0.30259,-0.11063,0.57053,0.13504
-0.096895,0.0032044,-0.08896,0.052949,0.011749,0.083162,0.64897,0.27359
-0.05539,0.085298,-0.092317,0.098116,-0.27085,0.023041,0.31479,0.2211
0.014191,0.057221,-0.099641,-0.10391,-0.31235,-0.10819,-0.42954,-0.014496
-0.0032044,0.042267,-0.046235,0.052033,-0.14328,-0.036469,-0.61326,-0.13169
-0.016632,-0.0016785,-0.084077,-0.17594,0.056001,-0.047456,-0.58671,-0.047456
-0.01297,-0.017548,-0.050813,-0.22812,0.10361,0.074922,0.11795,-0.00076295
0.023651,-0.043793,-0.016938,0.011444,0.10025,0.1326,0.18906,0.015412
0.034943,-0.084382,-0.0013733,0.19944,0.1088,0.090791,0.72984,-0.0206
-0.018463,-0.013886,-0.0062562,0.10422,-0.0028992,0.038911,-0.014801,-0.14633
-0.0022889,-0.14817,0.016632,-0.33188,-0.017243,-0.13687,-1.4723,-0.14542
0.015717,-0.20462,-0.011749,-0.28611,0.079805,-0.17655,-0.59403,-0.081941
0.085603,-0.18082,-0.060883,-0.06302,0.11612,0.10849,0.76493,-0.11215
0.099031,-0.11398,-0.084077,0.045319,-0.103,0.31418,0.46586,-0.17563
0.014801,0.025177,-0.085908,-0.054475,-0.046845,-0.4683,-0.86168,-0.24765
-0.036469,0.030671,-0.11093,-0.1384,0.027008,-0.43442,-0.6862,-0.12528
0.0016785,-0.11093,-0.0206,0.11765,-0.069734,0.29221,0.5211,0.061799
-0.065461,-0.098726,-0.1268,0.13718,0.32181,0.016938,0.67002,0.13413
-0.14817,-0.059663,-0.095369,-0.11643,0.34012,0.089265,0.44083,0.20523
-0.095674,-0.10239,0.0016785,-0.053559,-0.12467,0.18906,0.3447,0.31083
-0.097505,0.066682,-0.12772,-0.22965,-0.10086,0.054475,0.062104,0.25345
-0.14633,0.25162,-0.082856,-0.21012,-0.077974,-0.013581,-0.23545,0.12619
-0.17929,0.10239,-0.026093,-0.50797,-0.065156,-0.0795,-0.12161,0.084382
-0.16434,0.13657,-0.069123,-0.38865,-0.019684,0.01297,0.11246,0.15122
-0.10513,0.024262,-0.034333,0.68681,-0.10422,0.11673,0.13718,0.088655
-0.022736,-0.052949,-0.039826,-0.009308,-0.022126,0.095064,0.12528,-0.054475
0.077363,-0.16464,0.0083925,-0.093233,0.0074769,0.086519,0.11368,-0.075227
0.12772,-0.34592,-0.055695,-0.031586,-0.032502,0.01236,-0.028229,-0.087434
0.097505,-0.21622,0.010224,-0.17502,0.032807,-0.087129,-0.1564,-0.11826
0.085908,-0.036469,-0.058137,-0.27298,0.1149,-0.033722,0.03006,-0.067903
0.040131,0.0044251,-0.09659,-0.099947,0.048371,0.0086976,0.1265,-0.033112
0.066377,-0.047456,-0.0080873,0.11643,-0.0090028,-0.013581,0.048066,0.014801
0.053864,-0.11032,0.070344,0.11368,0.021515,-0.0050355,0.002594,-0.091096
-0.01297,-0.0096132,-0.096895,-0.069123,-0.0022889,0.023957,0.0010681,-0.12558
-0.014191,0.12955,-0.1976,-0.16068,-0.023041,0.099641,-0.034333,-0.062104
-0.015106,-0.040742,-0.14054,-0.22477,-0.036469,0.15183,-0.1561,-0.01236
-0.12039,-0.056611,-0.12772,-0.12589,-0.08011,0.27024,0.082246,-0.013275
-0.16312,0.098726,-0.11856,0.066682,-0.012055,-0.061189,0.26444,0.088655
-0.027619,-0.065766,0.027619,-0.016632,0.24979,-0.6215,0.0019837,0.19547
0.042878,-0.060578,-0.019074,-0.019684,0.17868,-0.26871,-0.14054,0.069429
-0.078279,0.078279,-0.097505,-0.29313,-0.10849,0.32822,0.15824,-0.092012
-0.051423,-0.0077821,-0.013886,0.17624,-0.092012,0.18906,0.14389,-0.030671
0.01297,-0.051423,0.065766,0.31052,-0.12589,0.010529,-0.40208,0.023651
-0.041657,0.033417,-0.012055,-0.30411,-0.071565,-0.20951,-0.67796,-0.061799
-0.19303,0.062715,-0.088045,-0.51621,0.19059,-0.13016,-0.39384,-0.00045777
-0.2388,0.0083925,-0.044404,0.086824,0.10605,0.040131,0.45823,0.15702
-0.13443,-0.0077821,-0.10849,-0.34623,0.075227,-0.0047303,0.56718,0.27512
-0.066987,-0.06363,-0.051118,-0.60014,0.080415,0.013275,0.44175,0.13504
0.027619,-0.15976,-0.034028,1.4076,-0.085603,0.081636,0.19883,0.0068666
0.066072,-0.066072,-0.10147,-0.43351,0.031891,0.13596,-0.96025,-0.099947
0.1146,-0.08011,-0.11917,-0.20188,-0.013275,0.40513,-0.45365,-0.078889
0.050202,-0.20676,-0.11276,-0.16098,-0.12009,0.32517,0.089265,-0.053864
-0.064546,0.015106,-0.083162,-0.1384,-0.069123,0.14939,0.041962,-0.022736
-0.091402,0.17411,-0.087129,-0.24887,-0.06302,-0.13169,0.20401,0.067903
0.017548,-0.015412,-0.06302,-0.07126,0.033722,-0.82261,-0.058747,0.066377
0.051423,-0.11002,-0.040742,-0.014801,-0.013581,-0.48203,-0.044709,0.030365
-0.0041199,-0.062715,-0.045014,-0.045624,-0.057527,0.57633,0.20981,0.0383
0.018769,-0.069429,-0.029755,-0.42039,0.0053407,0.50919,0.28061,0.01297
0.027619,-0.074311,-0.014801,0.20615,0.036164,0.41276,0.37949,-0.069734
0.03769,-0.1326,0.0077821,0.42008,0.073091,-0.19944,0.20462,-0.061189
-0.0053407,-0.12253,0.0077821,-0.10666,0.090791,-1.4363,-0.17044,-0.10788
-0.063325,-0.047456,-0.052644,-0.18112,0.026093,-0.066377,-0.31418,-0.15457
-0.010224,-0.056306,-0.040131,-0.15152,0.017243,0.47898,0.075532,-0.034943
0.0053407,-0.0077821,-0.058137,-0.11093,-0.025483,0.18753,0.20279,0.005951
0.053864,-0.043488,-0.068208,-0.073701,-0.016632,0.18967,-0.71519,-0.10819
0.086519,-0.036164,-0.07248,-0.11978,0.042267,0.028534,-0.12406,0.0074769
-0.0044251,0.037385,-0.090181,0.019989,0.027008,-0.093233,0.76707,-0.04715
-0.027314,0.094759,-0.11734,0.027314,0.0086976,0.013275,0.42161,-0.0080873
-0.12863,0.15213,-0.13748,-0.1033,0.010834,0.014191,-0.72313,0.011139
-0.17777,0.088655,-0.056001,-0.023651,-0.0972,0.037995,-0.45365,0.049592
-0.1564,-0.00076295,-0.07126,-0.095369,-0.1326,0.20554,0.71977,0.1442
-0.13993,-0.068513,-0.068513,-0.80125,0.090181,0.083772,-0.21714,0.017243
-0.089265,-0.098116,-0.0086976,0.087129,0.091402,-0.065766,0.26963,0.11856
-0.059663,-0.12467,0.030671,0.29496,-0.024262,-0.0074769,0.33829,0.16648
-0.060578,-0.14389,-0.0062562,-0.042878,-0.032807,0.060273,-0.0047303,0.21653
-0.065156,-0.024567,-0.054475,-0.065156,0.041352,0.049592,-0.31724,0.15885
-0.0080873,-0.010224,-0.044709,-0.030671,0.058137,0.13199,-0.55283,0.085298
0.030365,-0.025788,-0.050813,-0.093843,0.0080873,0.058442,0.031891,0.010834
0.0019837,0.015717,-0.038911,-0.10727,0.015106,-0.050507,0.26902,-0.053559
-0.036469,0.0053407,-0.055085,-0.078584,0.085603,-0.1326,0.33494,-0.048371
-0.013275,-0.070649,-0.08896,-0.11154,0.07187,-0.056001,-0.46281,0.0074769
-0.034638,-0.12039,-0.059968,-0.10636,-0.0065614,0.045014,-0.61631,0.010834
-0.047761,-0.14878,-0.06424,-0.085603,-0.018158,0.019989,0.15885,-0.014801
-0.015717,-0.1564,-0.061799,-0.076753,0.0038148,-0.1268,0.74693,-0.032502
0.029755,-0.070954,-0.1387,-0.06424,-0.018463,-0.17868,0.14694,-0.042878
-0.053254,0.24857,-0.14572,-0.20676,-0.033722,-0.025483,-0.60868,-0.08957
-0.0065614,0.068513,-0.042878,0.43473,0.016632,0.2739,-0.74632,-0.085908
-0.08896,0.028534,-0.024262,-0.38224,0.046845,0.31174,-0.1384,0.0047303
-0.081941,-0.11276,-0.060883,-0.22141,0.018769,-0.25376,0.20981,0.025788
-0.012665,-0.11948,-0.0044251,0.074311,-0.10849,-0.077668,0.2327,0.047761
0.022126,-0.053559,0.0013733,0.0047303,-0.03769,0.14664,0.47318,0.016938
0.025177,-0.016938,-0.090486,-0.11917,-0.019684,0.33677,0.64561,0.030365
-0.02121,0.070039,-0.078889,-0.31327,-0.053864,0.28489,0.57053,0.0086976
0.017243,-0.20859,0.02945,-0.26596,-0.11368,0.23239,0.47929,-0.017548
0.052338,-0.20981,-0.0041199,-0.024872,-0.029145,0.095979,0.33616,-0.082856
0.020294,-0.087434,-0.032197,0.18906,0.15183,-0.44419,-0.14542,-0.15183
0.05539,-0.002594,-0.042573,0.08835,0.2269,-0.022736,-0.60716,-0.073091
0.069734,-0.027924,-0.01236,0.17105,0.20737,-0.41398,-1.1089,-0.077058
0.02182,-0.02884,-0.15,-0.049592,0.24613,-1.2001,-0.69322,-0.14176
0.026703,-0.014496,-0.12436,-0.24338,0.068208,0.17838,0.36881,0.011139
0.0032044,-0.038605,-0.10849,-0.14878,-0.18814,0.28,0.066072,0.076448
-0.075227,0.0022889,-0.051118,-0.035554,-0.074006,-0.0038148,-0.31724,-0.00076295
-0.021515,0.058137,-0.074922,0.075227,0.025788,0.121,-0.24125,0.064546
-0.018463,0.066682,-0.11124,-0.093843,-0.030976,0.048676,0.048981,0.070039
-0.083162,0.070039,-0.0972,-0.25803,0.030976,0.061494,0.28733,0.056611
-0.11948,0.046235,-0.04593,-0.24369,-0.0056458,0.20035,0.30198,0.12161
-0.14817,0.012055,-0.02182,-0.33341,-0.073396,0.14206,0.215,0.15305
-0.074006,-0.084993,0.016022,0.67399,-0.08072,0.082551,0.048981,0.11582
-0.14389,-0.078279,-0.03006,-0.26932,-0.11093,0.094453,-0.018463,0.043183
-0.10208,-0.15396,-0.029755,-0.3563,-0.19425,0.30838,0.13779,0.0074769
-0.037385,-0.20737,-0.093538,-0.070954,-0.029755,0.18631,0.31174,0.092622
-0.016327,-0.103,-0.076143,-0.056916,0.14847,0.11124,0.31235,0.099947
0.037385,-0.088045,-0.033722,-0.069123,0.034333,0.20127,0.40787,0.046235
0.063935,-0.09659,-0.044099,-0.16007,0.00045777,-0.16068,0.18845,-0.039216
0.07187,0.019074,-0.082551,-0.027314,0.1207,-0.99321,-0.61448,-0.14145
-0.04593,0.15427,-0.11765,-0.052644,0.13504,-0.34348,-0.37888,-0.11398
-0.098116,0.07187,-0.032807,-0.085908,0.03769,0.28214,0.22904,-0.060883
-0.035859,0.037079,-0.053254,-0.21073,-0.018769,0.15671,-0.060883,-0.028229
-0.023041,0.028229,-0.10666,0.073091,-0.0065614,0.082856,-0.78691,-0.028229
-0.085908,0.07187,-0.056306,0.051118,-0.016632,0.04715,-0.095674,-0.02945
-0.08896,0.041962,-0.062409,-0.078889,-0.033722,0.045624,0.28122,-0.037385
-0.06302,-0.026703,-0.051118,-0.29709,0.025177,-0.019074,0.011139,0.040436
0.077974,-0.25559,0.02182,-0.046845,-0.025483,0.056611,0.27024,0.12619
0.094148,-0.1796,-0.064851,0.1973,-0.11582,0.11276,0.34867,0.04593
0.0028992,-0.024262,-0.070039,-0.13657,-0.01297,-0.017548,-0.14023,-0.038911
-0.0022889,-0.019684,-0.046235,-0.03006,-0.023346,-0.014191,-0.54734,0.038911
-0.08072,-0.034638,-0.045624,-0.35874,0.061494,0.047456,-0.081025,0.085908
-0.056001,-0.12345,-0.045624,-0.42008,0.17197,0.0795,0.62669,0.13931
0.098726,-0.17838,0.019379,0.53025,0.061494,0.16922,0.33249,0.097505
0.019379,-0.096895,-0.00076295,-0.13321,0.0047303,0.51591,0.57847,-0.0019837
0.050202,-0.0022889,-0.078584,-0.26413,-0.029145,0.66667,0.88945,0.03006
0.019684,0.0038148,-0.054475,-0.37247,-0.097505,0.20768,-0.17472,-0.028229
-0.042573,0.046235,-0.095064,0.40055,-0.0056458,-0.087129,-1.574,-0.1857
-0.17075,0.11063,-0.098726,0.16098,0.2974,-1.3347,-0.98619,-0.19669
-0.19516,0.025177,-0.121,-0.19486,0.12314,-1.8199,0.30564,-0.023346
-0.20523,0.12375,-0.12161,-0.051423,-0.12741,0.41184,0.80644,0.014801
-0.2031,0.11765,-0.11032,0.0044251,-0.053254,1.0744,0.40665,0.012055
-0.14176,0.034028,-0.10636,-0.2269,-0.11307,0.15488,0.26047,0.12161
-0.050813,-0.03769,-0.085908,-0.098726,-0.20645,0.013886,0.34287,0.17685
0.023651,-0.073701,-0.00045777,-0.1265,-0.18448,-0.0086976,-0.031891,0.17838
0.068513,-0.13748,0.0022889,-0.11032,-0.069734,0.070344,-0.17868,0.13809
0.14084,-0.25956,0.019989,0.13779,0.05417,0.019074,-0.18845,0.034028
0.12375,-0.21805,-0.024872,-0.31724,0.46952,-0.059663,-0.26169,-0.10636
0.07187,-0.14939,-0.058137,-0.061494,0.55131,-0.027314,-0.36393,-0.27604
0.093843,-0.20066,0.00076295,-0.17411,-0.061189,-0.020905,-0.23056,-0.22446
0.059968,-0.093538,0.02182,-0.033722,-0.0206,-0.3389,-0.64897,-0.21866
0.013275,0.022736,-0.066377,-0.034943,-0.041352,-0.24247,-1.397,-0.08957
-0.052949,0.039826,-0.0795,-0.023041,-0.18479,0.016327,-0.23301,0.075532
-0.11032,0.059663,-0.069123,-0.14511,-0.11734,0.15213,0.64378,0.076753
-0.10239,0.018158,-0.076143,-0.25376,0.017548,0.14023,0.71672,0.11795
-0.087739,-0.027619,-0.092012,0.31998,-0.018463,0.094453,0.43931,0.12772
-0.093538,0.081331,-0.12894,0.069123,-0.022431,0.055085,0.076143,0.074311
-0.059358,0.10361,-0.13962,-0.23575,-0.053864,0.11765,0.43107,0.11643
-0.019684,-0.0096132,-0.11337,-0.2501,-0.069734,0.168,0.61387,0.15946
-0.076143,0.090486,-0.086213,-0.13107,-0.075227,0.091707,-0.3331,0.016632
-0.11582,0.049592,-0.055085,-0.03006,-0.043183,0.045319,-0.56046,-0.057527
-0.10391,-0.0016785,-0.030671,0.059968,0.047761,0.015412,0.32273,0.012665
-0.057221,-0.0016785,-0.026703,-0.099947,0.1442,-0.090181,0.11002,0.057221
-0.017548,-0.15671,-0.0062562,-0.25437,-0.0068666,0.034028,0.084382,0.084077
0.056611,-0.2443,0.057832,-0.17197,-0.15732,0.24125,0.2562,0.085603
0.053254,-0.13413,0.010834,-0.017243,-0.024262,0.10758,0.11368,-0.017548
-0.010224,-0.11551,-0.036469,0.019074,0.085298,-0.016938,0.16678,-0.061799
0.03006,-0.24369,-0.06424,0.034638,0.054475,-0.039826,0.25711,-0.036774
0.030365,-0.13199,-0.083162,-0.068208,0.1146,0.032502,0.23728,-0.066987
0.034943,-0.0038148,-0.066072,-0.486,0.038911,0.14603,0.16403,-0.072175
0.00076295,0.019684,-0.0044251,-0.68589,-0.0032044,0.080415,0.31083,-0.057221
0.030365,0.0383,-0.13077,1.6246,0.067903,0.095369,0.025177,-0.038605
-0.034638,0.077363,-0.18723,-0.41032,0.2092,-0.41917,-0.8101,-0.084993
-0.028534,0.071565,-0.13107,-0.30838,0.045014,-1.0253,-0.81193,-0.0022889
-0.013275,-0.053559,-0.030976,-0.1146,-0.13657,0.022126,-0.84154,0.11307
-0.12802,0.096284,-0.043793,0.0013733,-0.049287,0.17777,-0.19883,0.046845
-0.17105,0.15061,-0.06302,0.043488,-0.046845,0.055695,0.13443,0.1564
-0.086213,0.026398,-0.074311,-0.10636,0.0019837,0.13931,0.23484,0.15854
-0.071565,-0.049897,-0.040131,-0.14603,-0.030976,0.23575,0.37888,-0.048676
0.031586,-0.13687,-0.045624,0.06302,-0.04715,0.12253,0.34257,-0.047456
0.076448,-0.15457,0.0038148,-0.10758,-0.037385,0.15671,0.40726,0.034333
0.080415,-0.14633,0.026093,-0.16342,0.024262,0.087739,0.28824,-0.13993
0.11643,-0.14603,-0.074311,-0.18143,0.11612,0.036469,0.45121,-0.14878
0.10178,-0.14694,-0.019074,-0.10544,0.074311,0.23758,0.45518,-0.068818
0.14267,-0.19455,0.00076295,-0.053559,-0.017243,0.20737,-0.25284,-0.072175
0.047761,-0.059663,-0.027619,-0.046235,0.053559,-0.072175,-0.46769,-0.14389
-0.11551,0.058747,-0.10422,-0.087129,0.12039,-0.26291,-1.089,-0.21744
-0.14633,0.10056,-0.098116,-0.07126,0.018158,-0.63096,-0.4625,0.042267
-0.14054,0.077363,-0.11154,-0.17502,-0.043488,-0.29343,0.29526,0.21317
-0.11368,0.041657,-0.14908,0.086213,-0.009308,0.2858,0.07248,0.17746
-0.20615,0.11917,-0.073396,0.076143,-0.045014,0.19791,0.12284,0.215
-0.18997,0.037995,-0.055695,-0.038911,-0.12131,0.2501,0.11154,0.22965
-0.1622,-0.00015259,-0.099641,-0.3444,0.019074,0.15305,-0.046845,0.23697
-0.075837,-0.058137,-0.060273,-0.19059,0.16892,-0.44755,0.011139,0.13993
-0.069734,-0.069429,-0.04715,-0.1384,-0.020905,-0.1973,-0.0053407,0.029145
-0.061799,-0.060883,0.002594,-0.051118,-0.089265,0.37491,0.34104,0.025483
-0.038911,-0.088655,-0.002594,-0.046235,-0.04654,0.17227,0.43931,0.059358
0.035248,-0.066377,-0.049897,-0.040131,-0.051423,0.12924,0.42557,0.011444
0.046235,-0.047761,-0.023651,0.014801,-0.018463,0.099641,0.41764,-0.079805
0.098116,-0.084382,-0.016938,-0.0053407,0.056306,-0.025483,-0.022431,-0.10086
0.17136,-0.15427,-0.041657,-0.070954,0.086213,-0.0972,-0.97765,-0.16495
0.1149,-0.13413,-0.041962,-0.13169,0.078279,-0.097505,-0.33921,-0.17624
0.027008,-0.036164,-0.048371,-0.13596,0.047456,-0.10819,0.11795,-0.099947
-0.070039,0.056001,-0.086824,-0.10239,-0.041047,0.029145,0.074617,-0.06302
-0.092317,0.065766,-0.094453,0.038911,-0.057221,0.095064,0.13321,0.0068666
-0.14328,0.12375,-0.13107,-0.10452,0.0035096,0.071565,0.10422,0.023651
-0.15244,0.12131,-0.1677,-0.075532,-0.016632,0.050202,-0.024262,0.015106
-0.1445,0.033112,-0.070649,-0.1619,0.017548,0.26291,0.08957,0.0053407
-0.12741,0.040436,-0.081025,-0.33127,0.055695,0.53941,0.23911,0.063325
-0.083162,-0.070649,-0.020905,0.1323,-0.13718,0.53178,0.36057,0.13016
-0.015717,-0.10452,-0.024262,0.31296,-0.17716,0.19181,0.65568,0.11185
0.0099184,-0.11643,-0.036469,-0.11368,0.084382,-1.0799,0.77867,0.10636
0.017243,-0.068208,0.0038148,-0.012055,0.093233,-1.0323,0.5626,0.11917
0.051118,-0.094148,0.028229,-0.095369,0.14817,-0.053864,-0.52903,0.082246
0.10849,-0.2443,0.030671,-0.20584,0.30777,0.17197,-1.8642,-0.044404
0.068208,-0.18051,-0.098421,-0.19791,0.12985,0.17746,-1.8917,-0.21103
0.02884,-0.090486,-0.085908,-0.15274,-0.043793,0.069123,0.12192,-0.093233
-0.019074,-0.04654,-0.047761,-0.094759,-0.067597,0.15549,0.81956,-0.078889
-0.048981,-0.0044251,-0.022126,-0.2855,-0.090181,0.10544,-0.057527,-0.089876
-0.030671,-0.01236,0.052644,0.56687,-0.047456,-0.06363,-0.55009,-0.018158
-0.10727,0.03769,-0.11368,0.16251,0.019379,-0.077058,-0.48722,-0.034638
-0.090791,-0.0013733,-0.15061,-0.26322,0.033722,0.057527,-0.31449,0.025788
-0.038911,-0.0074769,-0.15183,-0.16983,0.005951,0.12131,0.55406,0.10758
-0.034333,0.02945,-0.11826,-0.22812,-0.041657,0.13504,0.42985,0.077363
-0.048981,0.035554,-0.11337,-0.14755,-0.062104,0.19181,0.59037,0.11185
-0.042878,0.044709,-0.051728,-0.06424,-0.070039,0.2211,0.6804,0.1088
-0.0080873,0.050507,-0.022431,-0.058442,-0.022736,0.1146,0.28183,0.067597
-0.030976,0.010224,-0.056611,-0.06302,0.032197,-0.36942,-0.52262,-0.040742
-0.018158,-0.048981,-0.049897,-0.10178,0.012665,-0.38926,-0.55833,-0.048676
0.086213,-0.14359,0.0013733,-0.0086976,-0.00015259,-0.030365,-0.12314,0.0071717
0.11673,-0.17166,-0.034028,-0.020294,0.027924,0.012665,-0.036774,-0.047456
0.084382,-0.16831,-0.034943,-0.068818,0.012055,0.068513,0.1146,-0.098116
0.090181,-0.11002,-0.042573,-0.093843,-0.0090028,0.085908,0.051728,-0.074922
0.069429,-0.10575,0.015412,-0.07126,0.041047,0.020905,-0.041657,-0.058137
0.00076295,-0.14694,-0.012055,-0.15488,0.040436,0.085908,0.35233,-0.044709
-0.088045,0.015717,-0.076143,0.21744,0.073701,0.036469,0.53025,-0.00076295
-0.13748,0.070344,-0.070039,-0.22385,0.075227,-0.023957,0.14633,0.015717
-0.11032,0.045319,-0.099641,-0.28641,-0.019379,0.075532,-0.063325,0.11856
-0.15579,0.10575,-0.12253,-0.14511,0.00076295,0.061189,0.17533,0.028229
-0.15244,0.068513,-0.098421,-0.11734,0.0080873,0.024872,0.23911,0.0041199
-0.15976,0.11002,-0.1088,0.0071717,0.023651,0.0044251,-0.11917,0.068208
-0.11002,0.17258,-0.12619,-0.0071717,0.033112,0.023957,-0.81132,0.077363
-0.11612,0.066072,-0.092927,0.026093,-0.052949,0.091707,-0.22019,0.098116
-0.072786,-0.062715,-0.060578,-0.18143,-0.11551,0.057221,0.29679,0.13382
-0.02121,-0.032197,-0.022126,-0.11704,-0.065766,-0.027924,0.14389,0.17227
0.0099184,-0.11734,-0.018463,0.20401,0.048371,-0.1207,0.11032,0.097505
0.04715,-0.24796,0.08835,-0.23911,0.079805,-0.10178,-0.30625,0.0028992
0.04593,-0.31449,-0.023957,-0.43992,-0.012665,0.074922,0.15335,0.057527
-0.015412,-0.12985,-0.041047,0.037385,-0.11124,0.17319,0.62547,0.068513
0.053559,-0.070649,-0.0065614,0.08072,0.1149,0.059358,0.43534,0.033722
0.099641,-0.16373,0.012055,0.22141,0.2742,-0.077974,0.072175,-0.087739
0.14389,-0.15854,-0.062715,0.12039,0.077363,-0.057832,-0.3151,-0.1738
0.10971,-0.026093,-0.1146,-0.13565,0.025788,-0.10605,-1.2044,-0.26078
0.0038148,0.094148,-0.103,-0.28458,-0.024262,-0.057832,-0.38193,-0.18479
-0.040436,0.070649,-0.12345,-0.2562,-0.058442,0.058442,0.29557,-0.076753
-0.086824,0.058137,-0.13901,-0.17136,-0.057832,0.083467,0.18235,-0.019379
-0.10361,0.13565,-0.099336,-0.10636,-0.051728,0.034028,0.23117,-0.01236
-0.087434,0.065461,-0.064546,-0.12772,-0.022431,0.015106,0.2327,0.047761
-0.11368,0.010224,-0.042878,-0.034333,-0.010224,0.0086976,0.16403,0.071565
-0.12772,-0.018769,-0.024262,0.084077,0.027314,-0.025483,0.20645,0.1088
-0.096895,-0.0068666,-0.087434,0.10941,0.022126,-0.03769,0.16709,0.11032
-0.11704,-0.067903,-0.016632,-0.010529,0.0010681,0.018463,-0.083772,0.023651
-0.04593,-0.072175,-0.050507,-0.056306,0.0053407,0.055695,-0.23636,0.023346
-0.036469,-0.052644,-0.077058,-0.11185,0.025483,0.095369,0.10422,0.057221
0.02121,-0.009308,-0.012665,-0.17777,0.059358,0.16007,0.47715,0.12284
0.032197,-0.07187,0.005951,-0.16495,0.02182,0.11704,0.5211,0.13046
0.059663,-0.090791,0.027314,-0.2034,0.05539,0.099031,-0.10391,0.057221
0.015717,-0.095674,0.0074769,0.14206,-0.14481,0.29862,-0.87327,-0.026703
-0.0041199,-0.12467,-0.064546,-0.045624,-0.031586,0.051423,-0.93492,-0.091096
-0.032502,-0.098726,-0.092927,-0.22293,0.10788,-0.16098,-0.14542,0.045014
-0.030671,-0.066072,-0.12314,-0.068818,-0.099947,-0.056306,0.20798,0.075227
-0.041962,0.017548,-0.11673,-0.038605,0.0090028,-0.75639,0.14633,0.027619
-0.020905,-0.027924,-0.082856,0.056001,0.1207,-0.75456,0.050507,-0.047456
-0.048676,0.078279,-0.1091,-0.0795,0.061189,0.35447,0.13199,-0.081025
-0.059663,0.074006,-0.06424,-0.10178,0.067292,0.3856,0.12284,-0.02121
-0.022126,0.053864,-0.10544,-0.1384,0.0010681,-0.26902,-0.026398,0.025177
-0.024262,0.015412,-0.051728,-0.11795,-0.0206,-0.23636,-0.012055,-0.022736
-0.041962,0.0053407,-0.058442,-0.03006,-0.065156,0.34684,0.19333,-0.014191
-0.074617,-0.057832,-0.030976,-0.07126,-0.049897,0.28977,0.2153,-0.024262
0.00045777,-0.14145,0.0071717,-0.12375,-0.031586,0.34012,0.085298,0.02945
0.063325,-0.14542,0.024567,-0.08072,0.034028,-0.073396,-0.11032,0.069429
0.093843,-0.14572,-0.046845,-0.081025,0.13169,-0.31907,-0.13077,-0.013275
0.068513,-0.12772,-0.00045777,-0.050813,0.033722,0.12467,0.079194,-0.0972
-0.0035096,-0.075532,-0.034943,-0.0053407,-0.03769,0.12589,0.20981,-0.088045
-0.009308,-0.11582,-0.067292,-0.062409,0.082551,0.055695,0.17685,-0.089265
0.0028992,-0.064851,-0.052949,-0.076448,0.078279,0.087129,0.30655,-0.13687
-0.078889,0.010224,-0.086519,-0.091707,-0.0206,0.103,0.54307,-0.033722
-0.081331,0.049287,-0.10452,-0.16312,-0.016938,0.060578,0.32578,0.031281
-0.10452,0.070344,-0.11093,-0.13718,-0.013581,-0.015412,-0.64744,-0.0206
-0.094453,0.061189,-0.11704,-0.1445,-0.057221,0.016022,-0.34195,0.10849
-0.04654,0.044099,-0.076448,-0.11093,-0.023041,-0.11215,-0.49119,0.19028
0.041657,0.002594,-0.056916,-0.019074,-0.0019837,-0.17838,-0.29221,0.16831
-0.033722,-0.016022,-0.078584,-0.095674,-0.014191,-0.027619,-0.14847,0.095369
-0.078279,-0.048981,-0.040742,0.22171,-0.021515,0.073091,-0.034943,0.11856
-0.059968,-0.082551,-0.074617,-0.059358,-0.023346,-0.048371,0.44144,0.10849
-0.049897,-0.083467,-0.064851,-0.34165,0.002594,-0.14633,0.22385,-0.0041199
-0.051728,-0.047456,0.0074769,-0.098421,-0.034333,0.042573,0.08957,-0.077668
-0.05539,-0.044404,-0.0044251,-0.087129,0.0035096,0.35142,-0.12924,-0.075227
-0.04593,-0.059663,0.009308,-0.00045777,0.04593,0.28214,-0.69505,-0.079194
-0.11154,-0.051728,0.014801,0.022736,0.086519,-0.07126,0.14511,-0.075227
-0.14572,-0.0065614,-0.070039,-0.20829,0.098116,0.028534,0.58366,0.017548
-0.066682,-0.063935,-0.043183,0.24552,0.034333,0.045014,0.37095,0.062104
-0.041657,-0.05478,-0.060273,-0.11734,0.07248,-0.064546,-0.019074,0.015717
-0.086824,0.018463,-0.049897,0.0077821,0.0080873,0.034638,0.30625,0.061189
-0.030976,-0.0074769,-0.068208,-0.069429,-0.049897,-0.029145,-0.34531,0.10025
0.039521,0.015717,-0.14084,-0.36271,-0.017243,-0.10544,-0.84977,0.060273
0.079194,-0.030976,-0.12284,-0.11643,-0.043488,-0.048981,0.18784,0.030365
0.094759,-0.053864,-0.090486,-0.077058,0.025483,-0.12833,0.056611,-0.024567
0.072786,-0.061494,-0.09659,-0.10788,0.011749,-0.023041,0.1854,-0.049287
-0.027008,-0.010224,-0.087129,-0.037385,-0.092927,0.12375,0.21378,-0.054475
-0.062104,-0.026093,-0.066072,-0.046235,-0.070039,0.037995,-0.13931,0.043183
-0.013275,-0.039521,-0.037995,-0.16403,0.095979,-0.025177,-0.23148,0.092927
0.061494,-0.092927,-0.023651,-0.050202,0.17533,0.02884,0.3444,-0.00076295
0.045319,-0.048676,-0.018769,-0.10727,-0.01236,0.15915,0.41764,-0.10544
0.030365,-0.033417,-0.0044251,-0.13138,-0.024262,0.18204,0.13107,-0.062104
0.0096132,-0.092317,0.016022,0.015412,-0.019379,0.23667,-0.23728,-0.033722
0.01297,-0.12985,0.0080873,0.051423,-0.0090028,0.37736,-0.29557,0.020905
-0.05478,-0.088045,-0.060273,0.015106,0.055695,0.086824,0.15274,-0.0086976
-0.078279,-0.075837,-0.059358,-0.22232,0.030365,-0.44633,0.35416,-0.011139
-0.10513,-0.048676,-0.043183,-0.65843,0.018158,-0.53941,0.2327,0.014191
-0.084993,0.035554,-0.093538,0.20768,0.08835,-1.158,-0.081025,-0.06363
-0.10391,0.1091,-0.08896,0.40085,0.086213,0.049592,-0.86046,-0.055085
-0.12406,0.088045,-0.10605,-0.05539,-0.011444,0.46464,-0.25742,0.11765
-0.086213,0.083772,-0.13138,-0.00015259,-0.09781,0.12802,0.3331,0.19852
-0.057221,0.0795,-0.1149,-0.11887,-0.024872,0.11093,0.22751,0.16068
-0.06302,0.037079,-0.081025,-0.23819,-0.04654,0.16709,0.18906,0.10788
-0.095979,-0.016022,-0.058442,-0.22995,-0.058747,0.12711,0.13077,0.091707
-0.0053407,-0.034943,-0.02884,-0.059663,-0.053559,0.14359,0.39902,0.009308
0.0068666,-0.034028,-0.034028,-0.10483,-0.027314,0.13413,0.2562,-0.13657
0.092622,-0.19608,0.023651,-0.040742,-0.0086976,0.031281,-0.58396,-0.12131
0.18875,-0.32212,-0.061189,-0.10086,-0.039826,-0.027924,-0.38712,0.009308
0.18753,-0.18082,-0.0019837,-0.1735,-0.014496,-0.063325,0.066072,-0.071565
0.085298,-0.034943,-0.039826,0.44755,0.052338,0.10086,0.53696,-0.12802
0.086824,-0.17441,0.010224,0.085603,0.0053407,0.10391,0.32853,-0.056001
-0.064851,-0.098726,-0.075837,-0.074311,0.058442,-0.13443,-0.2266,-0.089876
-0.17899,0.051423,-0.1088,-0.39933,0.14786,-0.28885,-0.92821,-0.16098
-0.13687,0.060273,-0.042267,-0.1738,0.095979,-0.047456,-0.31022,0.039521
-0.17441,0.063935,-0.034333,-0.087434,0.31144,0.0086976,0.6099,0.076143
-0.19028,0.029755,-0.11856,-0.087129,0.20188,0.094453,0.22934,0.091402
-0.18296,0.033722,-0.10452,-0.084993,-0.20676,0.067597,-0.70817,0.14817
-0.15274,0.030365,-0.080415,0.087434,-0.11643,0.049592,-0.028534,0.20096
-0.015412,-0.010224,-0.11063,0.041047,-0.12863,0.15793,0.45609,0.20859
0.052338,0.30045,-0.14054,-0.41703,-0.10117,0.032807,0.10147,0.13993
-0.015717,0.086519,-0.093233,-0.35966,-0.0074769,0.059663,0.18875,0.092317
-0.022736,-0.086519,0.0083925,0.08835,-0.012665,0.37736,0.30991,0.020905
0.048066,-0.1622,0.0077821,0.13596,0.00076295,0.21744,0.10452,0.048371
0.065156,-0.21897,0.041047,-0.0053407,0.035859,0.028229,-0.033722,-0.026398
0.052033,-0.26383,0.032197,-0.034943,0.038911,-0.38254,-0.026398,-0.066987
0.0795,-0.10178,-0.0096132,-0.088655,0.08957,-0.71611,-0.035554,-0.090791
0.10025,-0.1088,-0.057221,-0.070954,0.026703,0.040131,0.14237,-0.099031
0.08835,-0.063935,-0.054475,-0.0972,0.018769,0.15518,-0.11398,-0.17014
0.035859,-0.052644,-0.072175,-0.11032,0.056001,-0.05417,-0.097505,-0.15579
-0.04654,-0.0041199,-0.059968,0.0077821,0.0053407,0.01297,-0.15,-0.1387
0.039216,0.005951,-0.070039,-0.091096,-0.045319,0.16587,-0.60044,-0.062104
0.05417,-0.10758,-0.099336,-0.13382,-0.039521,0.22934,-0.098421,0.0053407
-0.025788,0.037995,-0.10025,-0.08896,0.023651,0.1207,0.68437,0.07248
-0.10452,0.17533,-0.11429,-0.070344,0.031281,0.10239,0.69261,0.13809
-0.11032,0.039826,-0.11276,-0.11032,-0.017548,0.28183,0.54398,0.10971
-0.18784,0.022126,-0.092927,-0.1207,-0.059968,-0.065461,-0.53391,0.044404
-0.168,0.019074,-0.085908,-0.11246,-0.047761,-0.26932,-0.90349,0.098726
-0.12375,-0.010224,-0.041657,-0.069734,-0.031281,0.091707,0.76219,0.15671
-0.10727,-0.020905,-0.039216,-0.054475,0.072175,-0.52476,0.24094,0.15274
-0.14267,0.002594,-0.0044251,-0.068818,0.1146,-0.65019,-1.2181,0.0086976
-0.12802,-0.028229,0.0038148,-0.041352,-0.011139,0.42985,-0.27756,0.052338
-0.11978,-0.089876,-0.022736,-0.050813,-0.021515,0.19974,0.28885,-0.0083925
-0.027314,-0.13901,-0.033722,-0.13962,0.040131,0.10513,0.15671,0.023041
0.069734,-0.14939,-0.02884,-0.11307,-0.032502,0.19791,0.59312,0.060273
0.0795,-0.12467,-0.020294,-0.068208,-0.049592,0.087434,0.33677,-0.03769
0.068208,-0.14664,-0.051118,-0.093843,0.053864,0.043488,-0.18387,-0.12467
0.082246,-0.10025,-0.060578,-0.052338,0.029755,0.078279,-0.10697,-0.1503
0.047761,-0.0019837,-0.10605,0.0096132,0.0068666,-0.12619,0.056001,-0.11337
0.02121,0.024567,-0.090486,0.03006,0.054475,-0.073396,-0.035859,-0.032807
-0.010224,0.031891,-0.065766,-0.082856,0.060578,0.0068666,-0.033722,-0.036469
-0.10544,0.077363,-0.14847,-0.21683,-0.017548,-0.069429,-0.038605,0.0080873
-0.18418,0.075532,-0.11032,-0.19974,-0.046845,0.094759,0.18479,0.073701
-0.19303,0.05539,-0.10208,-0.1445,-0.059968,0.29038,0.61906,0.1207
-0.099641,-0.015717,-0.030365,-0.055695,-0.11734,0.42161,0.79545,0.1564
-0.028534,-0.038605,0.0016785,-0.02121,-0.049592,0.051118,0.65995,0.11978
0.05417,-0.081636,0.0035096,0.025788,0.049592,-0.15518,-0.22477,0.041962
0.084382,-0.053864,-0.016327,0.14817,0.031281,0.094453,-0.15457,0.041047
0.12497,-0.094453,0.0099184,0.25772,0.083772,-0.015717,0.30289,-0.029755
0.076753,-0.10697,-0.069123,-0.048676,0.19913,-0.40726,-0.83421,-0.11856
0.048981,-0.13077,-0.082856,-0.23117,0.11002,-0.29313,-1.9841,-0.17624
0.070039,-0.11398,-0.023651,-0.23178,-0.030976,-0.0035096,-0.8574,-0.11826
-0.00015259,-0.082551,-0.034943,-0.32242,0.11307,-0.073396,0.082551,-0.10636
-0.0206,-0.060273,-0.050507,-0.06424,0.16098,-0.18021,-0.087434,-0.11765
-0.022126,-0.038911,-0.070649,-0.046235,0.0019837,-0.0074769,0.18051,-0.053559
-0.032807,-0.020905,-0.084688,-0.079194,-0.074006,0.10452,0.27634,-0.039216
-0.089876,0.043793,-0.12314,-0.3093,-0.08011,0.092622,0.23606,0.012665
-0.10575,0.048676,-0.072786,0.013275,-0.070954,0.055695,0.24918,0.056611
-0.094148,0.049287,-0.084688,-0.011139,-0.0383,0.0032044,0.24491,0.1387
-0.091402,0.035248,-0.094148,-0.043183,-0.0022889,-0.0099184,0.25406,0.13687
-0.020294,0.013275,-0.082551,0.074006,-0.066987,0.095369,0.26566,0.14115
-0.0083925,0.039521,-0.074311,-0.050507,-0.048676,0.11704,0.17502,0.16068
0.0013733,-0.039826,-0.05478,-0.14694,-0.030976,0.077058,0.032807,0.12894
0.037079,-0.077668,-0.023957,-0.12741,-0.027314,0.093843,-0.0090028,0.016022
0.069429,-0.098726,-0.018463,-0.10239,-0.034333,0.1149,0.017853,-0.10117
0.056001,-0.074922,-0.014191,-0.022736,-0.034943,0.081025,0.13199,-0.11978
0.0080873,-0.084382,-0.020294,-0.014496,0.08835,-0.13077,0.25956,-0.083772
-0.00015259,-0.095979,-0.023651,-0.058137,0.17258,-0.16007,0.076753,-0.0041199
-0.091707,-0.031891,-0.035554,-0.01236,0.067597,0.0099184,0.14786,0.041352
-0.14023,0.031586,-0.077974,-0.08835,-0.012665,0.0206,0.14542,0.018158
-0.14389,0.01236,-0.060273,0.049897,0.044404,0.080415,-0.18173,0.061494
-0.08835,-0.14603,-0.0065614,-0.21286,0.072175,0.1799,-0.33524,0.009308
-0.12619,-0.077363,-0.10056,-0.44358,0.0080873,0.10666,-0.032502,0.013886
-0.16403,0.061494,-0.14145,0.089876,-0.039826,0.09781,0.054475,0.082551
-0.10513,0.027314,-0.12345,-0.16251,-0.030976,-0.12039,0.0383,0.15671
-0.067292,-0.1088,-0.013581,-0.2443,-0.023041,-0.6215,0.014801,0.168
0.00076295,-0.20371,-0.030976,0.00076295,-0.056916,0.085908,0.20249,0.16464
-0.002594,-0.0028992,-0.030976,0.065461,-0.048981,0.26871,0.27604,0.10208
-0.01297,0.10513,-0.074311,-0.103,0.029755,0.092927,0.30411,0.011444
0.048371,0.035554,-0.056001,-0.019379,0.014191,0.1091,0.30564,-0.011139
0.045014,-0.032197,-0.066987,0.081331,-0.026398,0.17411,-0.2977,-0.13657
0.027314,-0.064851,-0.067292,-0.14359,-0.0068666,0.40238,-0.50401,-0.16831
0.043488,-0.076753,-0.019684,-0.31052,-0.045014,0.33463,0.65537,-0.070039
0.047456,-0.13138,0.009308,0.10147,-0.042573,0.13291,0.1561,-0.063325
-0.02121,-0.034638,-0.056306,-0.41093,0.039826,-0.61082,-0.70298,-0.094148
-0.072786,0.017853,-0.045014,0.6978,0.25376,-1.5053,-1.4443,-0.076143
-0.085603,-0.017853,-0.056916,-0.13077,0.12985,0.084688,-0.71611,-0.037385
-0.0065614,-0.022431,-0.078279,-0.16739,-0.049897,0.56596,0.11307,0.063935
0.044099,-0.055695,-0.0972,0.18845,-0.035554,0.15885,0.087739,-0.041962
0.01297,-0.0062562,-0.092622,-0.42893,0.017853,-0.48692,0.38682,-0.11185
-0.016938,0.053864,-0.11765,-0.18509,0.059052,-0.50706,0.41733,-0.022736
0.038911,0.078279,-0.12741,-0.12985,-0.018158,0.3801,0.71,0.099641
0.063935,-0.10788,0.0047303,0.13687,0.063325,0.38071,0.30442,0.082246
-0.039826,-0.10208,-0.070649,-0.32364,0.041962,0.13901,-0.81865,-0.020905
-0.065766,-0.024262,0.0053407,-0.19699,0.023957,-0.011139,-0.53666,0.03769
-0.070954,-0.0077821,-0.073396,-0.041657,-0.019684,0.090791,0.37705,0.079194
-0.069734,0.022126,-0.12314,-0.11337,-0.052644,0.053254,0.04593,0.080415
-0.036774,0.069123,-0.07187,-0.073091,-0.20066,0.10544,0.13779,0.076448
0.023651,-0.094453,0.013275,-0.0086976,-0.15488,0.14542,0.29374,0.0090028
-0.017243,-0.12619,-0.0090028,-0.069734,0.065461,0.091096,0.41184,-0.0010681
0.015412,-0.17044,0.020294,0.016632,0.090486,0.12009,0.64469,0.048981
-0.0050355,-0.15183,-0.034943,-0.018158,-0.014496,0.17502,0.59739,-0.010834
-0.054475,-0.10452,-0.074617,-0.11337,0.056916,0.0053407,0.10452,-0.10361
-0.093233,-0.060273,-0.057221,-0.16556,0.10086,-0.23087,-1.151,-0.13779
-0.073396,-0.049897,-0.0028992,-0.082551,0.033417,-0.057527,-0.68528,-0.12833
-0.052644,0.025483,-0.024567,0.17044,-0.0022889,0.0010681,0.29648,-0.041962
-0.073396,0.07187,-0.094148,0.17594,0.031586,-0.005951,0.38315,0.017243
-0.12192,0.12406,-0.17411,-0.40452,0.032197,0.083467,-0.055695,0.14786
-0.10819,0.10605,-0.1323,0.037995,0.015717,0.067292,-0.41001,0.12375
-0.10605,0.03769,-0.065766,-0.044404,0.019989,0.072175,0.17868,0.11063
-0.059358,0.11154,-0.11704,-0.48173,0.06363,-0.091707,-0.09781,0.10239
-0.027314,-0.069429,-0.07248,-0.083162,-0.2858,-0.11398,-0.40543,0.14298
-0.092012,-0.056306,-0.025483,-0.051118,-0.095979,-0.091402,0.27146,0.16312
-0.017243,-0.17411,-0.0013733,-0.00045777,0.16129,-0.013886,0.38499,0.12772
0.023041,-0.091707,0.0080873,0.077974,0.033417,0.34318,-0.1973,0.039216
0.074311,-0.15061,0.0041199,0.07126,0.0019837,0.1738,0.21317,-0.0065614
0.068513,-0.1445,-0.023041,-0.091096,0.0041199,-0.017243,0.35233,-0.12467
0.079194,-0.15793,-0.055085,-0.23484,0.029145,-0.42161,-0.42405,-0.21256
0.075227,-0.1561,-0.005951,-0.27604,0.088045,-0.7097,-0.45487,-0.23301
-0.05478,-0.040436,-0.026703,0.0019837,0.07248,0.34531,0.2388,-0.20432
-0.072175,0.035248,-0.10483,0.12284,0.0041199,0.36454,-0.14572,-0.016327
0.056611,0.015412,-0.09659,-0.05417,-0.16495,0.079805,0.24735,0.095979
0.08011,0.012665,-0.0795,-0.28367,-0.12131,-0.040436,0.61723,0.018158
0.002594,0.015717,-0.1326,-0.17136,0.056306,-0.1265,0.50797,-0.0053407
-0.12924,0.081941,-0.090181,0.023651,0.12253,-0.02884,0.0053407,0.075532
-0.19089,0.056611,-0.084688,0.025788,0.4509,-0.23056,-1.2386,0.091402
-0.20432,0.050507,-0.13687,-0.092927,0.092317,-0.12802,-1.1846,0.14786
-0.18662,0.13321,-0.08011,-0.084382,-0.2092,0.21622,0.43076,0.16556
-0.050507,0.049592,-0.076143,-0.11246,-0.044404,0.43351,0.40848,0.060578
-0.0068666,-0.0038148,-0.040131,-0.092317,0.0050355,0.2678,0.29831,-0.0022889
0.10819,-0.089876,0.00015259,0.0032044,-0.019074,-0.13779,0.20645,0.02182
0.18845,-0.1857,0.056916,0.03769,-0.050813,-0.015717,0.047456,-0.039216
0.15915,-0.41703,0.092317,-0.15152,-0.033417,-0.023041,0.12253,-0.11215
0.11398,-0.43748,-0.041657,-0.08835,0.0080873,-0.083467,0.091402,-0.11246
0.033722,-0.16281,-0.089265,-0.031586,-0.032807,-0.044099,-0.019074,-0.05478
0.017243,-0.11368,-0.025483,-0.1091,-0.0383,-0.0013733,0.011444,-0.010529
-0.0041199,-0.0044251,-0.038605,-0.12741,0.029145,0.052338,0.15946,-0.049592
-0.14267,0.16342,-0.099336,-0.14694,0.048981,0.15183,0.19699,-0.077974
-0.18418,0.15976,-0.09659,-0.082246,0.027619,0.019989,0.31022,0.023346
-0.039826,0.11978,-0.11063,-0.087129,-0.017548,-0.10422,0.19364,0.11582
-0.011444,0.077974,-0.093538,0.0972,0.013275,-0.076448,-0.67796,-0.039521
-0.083467,0.041962,-0.079194,0.11154,0.015717,-0.014801,-0.69749,-0.13138
-0.17105,0.10452,-0.11246,-0.18875,0.031586,0.036164,0.30625,0.0090028
-0.18418,0.13199,-0.12528,-0.31937,-0.03769,-0.061799,0.15549,0.15244
-0.13779,0.043793,-0.061189,0.037079,-0.12161,-0.0022889,0.0028992,0.15671
-0.048676,-0.05417,-0.070344,-0.11032,-0.1033,0.14084,0.02182,0.12314
-0.068208,-0.044404,-0.055695,-0.036774,-0.049897,0.14969,0.16251,0.15824
-0.1207,-0.059968,-0.029145,-0.014801,-0.027619,0.097505,0.35203,0.16312
-0.067597,-0.14359,0.062409,-0.069429,0.19486,-0.19425,-0.056916,0.086519
0.090486,-0.2208,0.02884,-0.025177,0.19974,-0.15305,-0.030671,-0.0062562
0.084688,-0.13474,-0.025483,-0.22202,0.0795,0.16892,0.4686,-0.077363
0.041657,-0.10422,-0.048981,-0.24796,0.010834,0.16312,0.25406,0.086213
0.085603,-0.13474,-0.050813,0.32181,-0.089876,0.14084,-0.18387,-0.038605
0.059968,-0.040436,-0.082246,-0.27115,0.04715,0.18692,-0.90135,-0.16312
0.0016785,0.014496,-0.085908,-0.15976,0.13199,-0.41917,-0.79026,-0.12131
0.033417,0.019379,-0.10941,-0.0096132,0.065766,-0.61112,0.24277,-0.048981
0.010834,0.060273,-0.10208,-0.084382,0.0053407,0.19028,0.39017,-0.036469
-0.015412,-0.02182,-0.05478,-0.078584,-0.083772,0.38651,0.41062,-0.079194
-0.055695,-0.009308,-0.1091,-0.10849,-0.10605,0.30198,0.52445,-0.02945
-0.041047,-0.026093,-0.088045,-0.13657,-0.085298,0.19455,0.5034,0.0038148
-0.036774,0.0013733,-0.075837,-0.0972,-0.043183,0.082551,0.10483,-0.039826
-0.018463,-0.063325,-0.041657,0.0795,0.057832,-0.44175,-0.4979,-0.11734
0.015412,-0.17472,-0.058137,0.039521,0.13443,-0.89311,-1.3909,-0.077974
-0.052644,-0.02884,-0.047761,-0.073701,0.027619,-0.0090028,-0.67796,0.0053407
-0.084077,0.02182,-0.0013733,-0.0096132,0.015106,0.19211,0.19242,0.074006
-0.074922,0.0383,-0.02182,-0.083162,-0.056611,0.17899,0.2034,0.22293
0.0096132,-0.048676,-0.0096132,-0.18173,-0.029145,0.18906,0.3386,0.22385
0.023651,-0.084077,-0.0083925,-0.11063,0.10819,0.052949,-0.06363,0.048981
0.062409,-0.070954,-0.029145,-0.084382,0.03006,0.098421,0.27665,-0.044709
0.08072,-0.16251,-0.026703,-0.058747,-0.029145,0.086824,0.6865,-0.084993
-0.014191,-0.089876,-0.10941,-0.13321,0.018158,-0.031586,-0.21897,-0.15152
-0.093538,0.00045777,-0.11521,-0.15152,-0.023346,-0.0035096,-0.52598,-0.065461
-0.12802,0.059968,-0.081941,0.16739,-0.075837,0.0022889,-0.45884,-0.0035096
-0.11398,-0.018769,-0.068208,-0.066377,-0.00076295,-0.08957,-0.1564,0.048981
-0.17014,0.10636,-0.12161,-0.10391,0.085908,-0.084077,0.29252,0.079194
-0.16403,-0.005951,-0.070649,-0.054475,0.042878,0.041047,0.35935,0.078584
-0.079194,0.023346,-0.099031,-0.3801,-0.075227,0.13504,0.36728,0.20188
-0.067597,0.1503,-0.078584,-0.1796,-0.0383,0.15915,0.40116,0.15946
-0.04654,0.0038148,-0.063325,-0.43381,-0.0035096,0.1915,0.51652,0.1854
-0.012055,-0.078889,-0.030976,0.11887,-0.00045777,0.087434,0.17075,0.14939
-0.038605,-0.069734,-0.030671,0.50858,0.013886,0.026703,0.033112,0.018158
-0.014191,-0.081941,-0.028229,-0.14145,-0.070954,0.063325,0.037385,-0.013581
0.019989,-0.10788,-0.01297,-0.08896,-0.060578,0.14817,-0.014801,-0.10697
0.050202,-0.10758,-0.044099,0.0013733,0.053864,0.047456,-0.41337,-0.23514
0.081636,-0.11246,-0.0074769,-0.014801,0.074006,0.0206,-0.2211,-0.16861
0.11215,-0.20371,0.066987,0.02121,0.082551,0.019074,-0.051118,-0.075227
0.096895,-0.11337,-0.072175,-0.15,0.13107,-0.63401,-0.77073,-0.096895
0.033722,-0.10178,-0.084077,-0.2739,0.067597,-0.60838,-0.15213,-0.02884
-0.0065614,-0.067903,-0.077363,-0.15396,-0.081331,0.19821,0.43107,0.054475
-0.10056,0.0035096,-0.070649,0.065766,-0.0056458,0.1503,0.009308,0.056306
-0.11368,-0.014191,-0.082856,-0.11093,0.016938,0.10575,-0.089876,0.064546
-0.10056,0.049897,-0.13687,-0.17716,0.057832,0.098726,0.35447,0.059663
-0.062104,0.086213,-0.10697,-0.074922,0.030365,0.098726,0.41184,0.0099184
-0.081025,0.077668,-0.093538,-0.091402,-0.015412,0.10086,0.50431,0.012665
-0.044404,0.026398,-0.063935,-0.076448,-0.060578,0.097505,0.71855,0.069123
-0.030671,-0.016022,-0.052644,-0.072175,-0.032807,0.043488,0.31144,0.059358
-0.014496,-0.020905,-0.037995,-0.068818,0.018158,-0.14359,-0.98466,-0.043793
0.023957,-0.040436,-0.027008,-0.048676,-0.0022889,-0.052949,-1.7711,-0.067903
0.067292,-0.10575,-0.043793,-0.0047303,-0.076753,0.46403,0.082551,0.037079
0.098421,-0.023346,-0.05417,-0.13107,0.026093,0.51621,0.61936,0.073701
0.082246,-0.073396,-0.030365,-0.11032,0.051423,0.32395,0.34409,0.015412
0.048371,-0.17166,-0.0065614,-0.046845,0.017548,-0.51133,0.19364,-0.08957
-0.028534,-0.096284,-0.057221,-0.080415,0.088655,-1.5853,-0.078279,-0.17594
-0.077363,-0.040436,-0.050507,0.066072,0.031281,-0.33951,-0.11582,-0.17166
-0.12772,-0.017853,-0.045014,-0.056916,-0.045319,0.35416,-0.41093,-0.095674
-0.14023,0.028534,-0.05478,-0.2742,0.011444,0.15152,-0.10391,-0.018463
-0.11917,0.067292,-0.1387,-0.070344,-0.045624,0.60777,0.057832,0.066682
-0.13687,0.13169,-0.15335,-0.19333,-0.0071717,0.46494,-0.1445,0.12833
-0.14817,0.080415,-0.12894,-0.19608,0.092317,-0.15671,0.055695,0.20462
-0.10239,0.0056458,-0.098421,0.041047,0.0038148,-0.054475,0.16739,0.2153
-0.056611,-0.092012,-0.048676,-0.0035096,-0.1091,0.073701,0.19516,0.099641
0.062409,-0.22965,0.087739,-0.095064,-0.10849,-0.016327,0.28275,0.062409
-0.034333,-0.17624,0.040436,0.10208,-0.06363,0.0041199,0.38773,0.049592
-0.030365,-0.1207,-0.019989,-0.050202,0.13474,0.090791,0.57603,0.0206
0.023346,0.011139,-0.077363,-0.30381,0.2977,0.025483,0.24369,-0.0041199
0.023957,0.11215,-0.080415,-0.2153,0.028229,0.069429,-0.73411,-0.10178
0.045624,0.029145,-0.0383,-0.068513,-0.14084,0.16373,-0.026703,-0.059968
0.07248,-0.097505,-0.035859,0.038911,-0.069123,0.078889,1.0903,0.066377
0.095674,-0.098726,-0.033112,0.084077,-0.015717,-0.075837,0.25376,0.060273
0.02884,-0.12741,-0.059968,-0.28031,0.034333,0.014496,-0.98619,-0.065766
0.075532,-0.15183,-0.057221,0.25742,0.070649,-0.027924,-1.2572,-0.091707
-0.00015259,-0.12222,-0.087434,-0.26932,0.070649,-0.03769,-0.51133,-0.053559
-0.067597,-0.075532,-0.16709,-0.27573,-0.0041199,0.049287,0.6511,-0.038911
-0.14267,0.0010681,-0.11978,0.16983,-0.0086976,-0.7396,0.32883,0.0099184
-0.20096,0.20066,-0.085908,-0.16587,0.16434,-0.56687,-0.804,-0.049592
-0.22751,0.15244,0.028229,0.17258,0.024262,0.32853,-0.2388,0.068208
-0.18173,0.094759,-0.042267,0.13535,-0.051423,0.31022,0.82658,0.18509
-0.10971,0.18265,-0.058747,-0.046235,-0.01297,0.1619,0.34195,0.14023
0.0096132,-0.018769,-0.04715,-0.21469,-0.040742,0.066987,0.08011,0.09781
0.064546,-0.22568,-0.092317,-0.26719,-0.023041,-0.044404,-0.17472,-0.0041199
0.10819,-0.08896,-0.063325,-0.18784,0.0053407,-0.11765,-0.4567,-0.11307
0.10788,-0.11765,0.010529,-0.002594,-0.016938,0.071565,0.29801,-0.12985
0.092317,-0.074006,0.011444,-0.018158,-0.038605,0.15671,0.1735,-0.10575
0.067903,-0.16892,-0.048371,-0.066682,-0.018769,0.096895,-0.055085,-0.089265
-0.021515,-0.1442,-0.044099,-0.067597,-0.013581,0.0068666,-0.14328,-0.029145
-0.059052,-0.15061,-0.016327,0.0065614,0.037385,0.024567,0.056306,0.077668
-0.056001,-0.048676,-0.043183,-0.11368,0.093538,0.031586,0.27329,0.13413
-0.02121,-0.059968,-0.048371,-0.14267,0.039521,0.012055,0.092317,0.093843
-0.057221,-0.0022889,-0.12985,-0.085298,-0.072175,0.070649,0.019074,-0.0032044
-0.038911,0.0086976,-0.12131,-0.14267,-0.077668,0.013886,0.014801,0.035554
-0.038605,0.012055,-0.087129,-0.13077,-0.041047,-0.036164,0.081941,0.042878
-0.12558,0.090181,-0.11307,-0.14847,0.02182,0.092317,0.36088,-0.027619
-0.14664,0.18418,-0.095979,-0.0972,0.080415,0.083467,0.41398,0.040131
-0.15854,0.17594,-0.11032,-0.073396,0.056306,0.026093,0.15824,0.076448
-0.11154,0.044099,-0.086519,-0.10758,-0.0074769,0.015412,-0.11856,0.068513
-0.10147,0.011444,-0.041047,-0.00015259,-0.035248,-0.027314,0.093538,0.086213
-0.015106,-0.063325,0.039521,0.12375,0.0028992,0.018158,-0.21866,0.084688
-0.03769,-0.18021,0.046235,-0.09781,0.04593,-0.034943,-0.45731,0.070649
0.066682,-0.27268,0.041657,0.16037,0.030365,-0.065156,0.18448,0.047456
0.11521,-0.15,-0.042573,-0.083772,-0.0050355,0.10239,0.57115,0.015412
0.11368,-0.12558,-0.052949,-0.19699,-0.14969,0.25162,0.20371,-0.14847
0.1622,-0.15061,-0.059052,-0.17685,-0.024872,-0.027924,-0.86931,-0.12955
0.043793,-0.00045777,-0.11887,-0.39475,0.31632,-0.37949,-0.58824,-0.1442
0.023651,-0.034943,-0.051118,0.08072,0.083467,-0.014801,-0.10636,-0.16617
0.043793,-0.090181,-0.046845,-0.13077,-0.053254,0.18601,-0.019074,-0.08896
0.045319,-0.14694,-0.03006,-0.053559,-0.19028,0.18173,0.11185,-0.091707
0.0383,0.034333,-0.088045,-0.050507,0.0099184,0.18173,0.26993,-0.036469
-0.10971,0.16587,-0.103,0.021515,0.31601,0.036164,0.21408,-0.025483
-0.15274,0.13565,-0.15488,0.041962,-0.00045777,-0.51041,-0.20005,0.033417
-0.14481,0.076753,-0.10544,-0.10849,0.019074,-0.58701,-0.51591,0.12833
-0.14054,0.012665,-0.061799,-0.091402,-0.031281,0.28367,0.0041199,0.19638
-0.14603,-0.0028992,-0.05478,-0.099336,-0.065766,0.29831,0.53269,0.20157
-0.1326,0.047456,-0.04654,-0.12284,-0.033417,-0.32883,0.0099184,0.1268
-0.11704,0.045624,-0.05478,-0.085603,-0.02884,-0.28336,0.12711,0.08835
-0.098421,-0.042878,-0.021515,-0.089265,-0.0013733,0.2443,0.42679,0.047761
-0.099031,-0.12741,-0.0099184,-0.10483,0.029755,0.10361,0.15152,-0.036774
0.033112,-0.25559,0.0035096,-0.46159,0.002594,0.10788,-0.060883,-0.015412
0.1912,-0.28305,-0.010834,0.081636,-0.016938,0.13748,0.28458,0.0013733
0.17472,-0.30045,-0.013886,0.50645,0.043488,0.047456,-0.18875,-0.081025
0.11185,-0.11215,-0.058442,-0.13382,-0.0074769,0.13809,-0.78508,-0.13199
0.06424,-0.097505,-0.066987,-0.12039,-0.051118,0.25284,-0.34958,-0.13352
-0.042878,0.094148,-0.099336,-0.050507,0.04593,-0.12863,0.68376,-0.089265
-0.11582,0.12772,-0.08957,-0.053254,0.094148,-0.19211,0.11398,0.0053407
-0.12406,0.12253,-0.088045,-0.032197,0.085603,-0.039216,-0.86351,0.031891
-0.18204,0.13962,-0.086824,-0.14145,-0.011139,-0.12741,-0.04654,0.088655
-0.13657,0.1207,-0.12253,-0.19211,-0.062715,-0.16434,0.064546,0.22568
-0.1384,0.092622,-0.11856,-0.28611,0.094148,-0.0038148,-0.74662,0.13901
-0.096284,0.030365,-0.050813,-0.12345,-0.037079,0.41428,0.56718,0.17411
-0.018158,-0.062409,-0.068513,-0.35721,-0.11154,0.67796,0.80644,0.10147
0.0074769,-0.070344,-0.07187,-0.13657,-0.10422,0.46616,-0.24735,-0.14786
0.024262,-0.060578,-0.023041,0.1265,-0.039521,0.121,-0.26413,-0.095064
0.039216,-0.086519,-0.015717,0.17197,0.035859,-1.0915,0.54978,-0.060883
0.059968,-0.17746,-0.0019837,0.034943,0.035248,-0.87388,0.56107,-0.051118
0.092622,-0.13138,0.0035096,-0.12711,0.07187,0.38773,-0.05478,-0.015106
0.10147,-0.18204,0.084077,0.0068666,0.14328,-0.011139,-0.49699,-0.10605
0.12467,-0.22629,0.085908,0.002594,0.14115,-0.04654,-0.26108,-0.20005
0.10056,-0.099947,-0.082246,-0.074311,0.052338,0.06302,-0.51591,-0.14542
0.062104,-0.0062562,-0.12955,-0.091096,0.041047,0.30808,-0.46586,0.0013733
0.019074,-0.05478,-0.11032,0.1033,0.0028992,0.36332,0.57847,0.15702
-0.018769,0.084382,-0.15854,-0.046235,-0.0383,-0.018769,0.79454,0.20584
-0.067597,0.061494,-0.094148,-0.18662,-0.016632,-0.010224,0.29465,0.14298
-0.13077,0.073396,-0.092927,-0.18997,-0.07126,-0.031586,-0.11734,-0.073701
-0.1503,-0.035859,-0.056611,-0.26047,-0.036774,-0.12802,-0.65019,-0.090791
-0.18662,-0.067903,-0.082856,-0.18875,0.0016785,-0.11246,-0.1265,-0.010834
-0.14817,0.092622,-0.12985,-0.019379,-0.033722,-0.029145,0.19028,0.094453
-0.12192,0.059358,-0.035554,-0.031281,-0.053864,0.051728,0.16068,0.086519
-0.11307,0.088655,-0.030976,-0.095064,-0.0068666,0.093538,0.19028,0.024262
-0.081941,-0.0047303,-0.050507,-0.079805,0.039521,0.092927,0.13931,0.010529
-0.051728,-0.05539,-0.025788,-0.099336,0.022126,0.088655,0.11673,0.0080873
-0.07187,-0.052644,-0.0083925,-0.10056,-0.02121,0.083772,0.16739,0.045014
-0.0010681,-0.15366,0.0035096,-0.070954,-0.027619,0.055085,0.082551,0.048981
0.057221,-0.21347,-0.0206,-0.015106,-0.00015259,-0.0080873,-0.17227,-0.0053407
0.056611,-0.12497,-0.044709,0.01297,0.03769,-0.015717,-0.06302,-0.02121
-0.012055,-0.067903,-0.051728,0.038911,0.059663,-0.014801,0.10025,-0.026398
-0.039826,0.0013733,-0.0795,-0.0972,0.046235,-0.041352,0.090791,0.025788
-0.056611,0.04654,-0.10422,-0.093843,0.029755,-0.07126,0.027924,0.018769
-0.021515,0.059358,-0.1088,-0.1088,-0.0019837,0.069734,-0.0050355,0.025788
-0.015717,0.062409,-0.098116,-0.15518,0.027619,0.015106,-0.17288,0.084688
-0.056611,0.067292,-0.093233,-0.12955,-0.078889,0.030671,0.16556,0.1384
-0.073701,-0.087434,-0.080415,-0.08835,-0.096284,0.10971,0.34226,0.20645
-0.064851,-0.023651,-0.08957,-0.073091,0.019989,0.085603,0.35386,0.18692
-0.033112,-0.057527,-0.055085,-0.055085,0.039826,0.076448,0.21256,0.094148
-0.0086976,-0.1442,-0.04593,0.065461,0.0071717,0.020294,-0.0032044,0.0013733
0.067597,-0.096895,-0.023957,-0.26719,0.063935,-0.082246,-0.27939,-0.087434
0.06302,-0.103,0.017548,-0.087739,0.043183,-0.13413,-0.67185,-0.19638
0.059663,-0.009308,-0.011444,0.096895,-0.0013733,-0.17075,-0.94224,-0.34958
-0.047761,0.089265,-0.037079,-0.027314,0.053254,-0.030365,-0.36912,-0.24949
-0.019684,0.036469,-0.018158,0.047456,0.1265,0.10605,0.34257,-0.051728
0.027924,0.016022,-0.045014,-0.12558,0.13474,-0.03006,0.27176,0.027314
0.054475,-0.077974,-0.051728,-0.21561,0.027924,-0.093843,0.10971,0.038911
0.025788,-0.14817,-0.065156,-0.121,0.0028992,0.012665,0.06302,-0.025483
-0.04593,-0.088655,-0.078889,-0.033722,-0.01297,0.041657,0.078279,-0.0056458
-0.0795,-0.044404,-0.11307,-0.057527,-0.01236,0.040131,0.056306,0.12192
-0.13352,0.009308,-0.098726,-0.086519,-0.031281,0.052338,0.073701,0.14084
-0.18814,-0.045624,-0.10819,-0.11368,-0.076753,0.06363,0.13626,0.09781
-0.18051,-0.050813,-0.08835,-0.23117,-0.08072,0.066377,0.16403,0.11185
-0.10025,-0.035859,-0.077363,0.079805,-0.091402,0.12711,0.19242,0.20676
-0.020294,0.026398,-0.06424,-0.018158,-0.11551,0.13352,0.26627,0.19638
-0.055695,0.070649,-0.041047,-0.056611,-0.0062562,0.13718,0.64561,0.059358
-0.052033,0.029755,-0.045624,-0.10544,0.11063,0.13321,0.38621,0.005951
0.045624,-0.067903,-0.015717,-0.13077,0.078279,0.022736,-0.54795,0.061494
0.072786,-0.092622,-0.0044251,-0.036774,-0.01297,-0.03769,-0.83024,-0.098116
0.081331,-0.040436,-0.013581,-0.0022889,-0.0065614,-0.19425,-0.48905,-0.15061
0.051728,-0.17624,-0.034638,-0.036469,0.11276,-0.76555,0.07248,-0.12345
-0.013581,-0.04593,-0.036774,-0.0206,0.057527,-0.035859,0.13931,-0.084382
-0.035859,-0.0028992,-0.0383,-0.10086,0.055085,0.30167,0.35721,-0.024262
-0.045014,-0.026398,-0.062715,-0.22385,0.08835,0.095369,0.44633,-0.069429
0.075532,-0.093538,-0.042267,-0.15183,-0.0090028,0.10086,0.57267,-0.0035096
0.051728,-0.17655,-0.088045,-0.0044251,-0.095064,0.014801,0.51743,-0.061799
0.07126,-0.19028,-0.12284,0.015717,0.027924,-0.10941,-0.048676,-0.053559
0.035248,-0.00076295,-0.01297,-0.10788,0.23911,-0.14054,-1.4852,-0.077363
-0.024567,0.0047303,-0.015717,-0.039216,0.050202,0.037079,-0.95262,-0.041047
-0.062715,0.08957,-0.12985,-0.061494,-0.089876,0.056611,0.49332,0.0077821
-0.085298,0.091096,-0.10697,-0.16251,-0.039216,-0.013275,0.56504,-0.016632
-0.081941,0.075532,-0.08011,-0.012055,-0.031281,0.040742,0.40787,0.02121
-0.079194,0.05417,-0.077363,-0.022736,-0.00045777,0.037079,-0.41215,0.0068666
0.037385,-0.0035096,-0.094453,-0.18875,-0.042573,0.074311,-0.1857,0.094453
-0.0206,-0.023957,-0.019684,-0.092317,-0.05539,0.031281,-0.12375,0.13535
-0.072175,-0.072175,-0.0035096,-0.055085,-0.0013733,0.030671,0.57664,0.22568
-0.037079,-0.074006,-0.0206,0.11704,0.070649,0.084382,0.93065,0.21988
0.027314,-0.10239,-0.059052,-0.029145,0.084077,0.15702,-0.30137,0.084077
0.02884,-0.12833,-0.0206,-0.16098,0.017853,0.44175,-0.87175,-0.099031
0.00076295,-0.15885,0.0080873,-0.15274,-0.036469,0.28275,0.039826,-0.14359
-0.034638,-0.095369,-0.002594,-0.095674,-0.024567,-0.0056458,0.077974,-0.076143
-0.081636,-0.0383,-0.075227,-0.092317,-0.0044251,-0.21408,0.42985,-0.092317
-0.12345,-0.0096132,-0.033112,-0.030365,0.066377,-1.0848,-0.031586,-0.11154
-0.076143,0.0019837,-0.086824,0.051728,0.075227,-0.75395,-0.66453,-0.035554
-0.090181,0.087129,-0.1799,-0.06424,-0.015412,0.26413,-0.37095,-0.0047303
-0.11795,0.12039,-0.15061,-0.27543,-0.061799,0.37766,0.66514,0.11093
-0.064851,0.037079,-0.096895,-0.18814,-0.068513,0.27146,0.40452,0.16495
0.0016785,-0.015717,-0.052033,-0.25956,-0.04715,0.2211,0.25742,0.18296
0.015717,-0.041352,-0.042573,-0.21775,0.013886,0.097505,0.24887,0.0053407
-0.035248,-0.0022889,-0.049897,0.62303,0.033722,0.1033,0.20981,0.0086976
-0.01297,-0.095369,-0.038605,-0.070649,-0.041962,-0.0010681,-0.11124,0.021515
-0.0010681,-0.054475,0.0056458,-0.28702,-0.051728,-0.04654,-0.015412,-0.056916
0.017548,-0.094759,0.013886,-0.17075,0.081331,0.051728,-0.039826,-0.04654
0.021515,-0.13626,-0.027924,-0.065156,0.059052,0.083162,-0.037079,0.0090028
0.053254,-0.13046,-0.043793,-0.023651,0.049592,0.0062562,-0.065461,0.039826
0.08011,-0.12284,-0.041657,-0.022431,0.079805,-0.0032044,0.031281,-0.019684
0.037385,-0.066377,-0.062409,-0.012665,0.028229,0.15518,0.056611,-0.12528
-0.034943,0.012665,-0.076753,0.053559,-0.016327,0.40452,-0.049287,-0.12589
-0.014191,0.02182,-0.08011,-0.24765,-0.022736,0.25742,0.3508,0.013581
-0.035248,0.0077821,-0.086213,-0.27909,-0.059663,0.51987,0.64683,0.065156
-0.05478,0.044709,-0.10483,-0.096284,-0.032197,0.36088,0.30625,0.011749
-0.067292,0.035859,-0.076448,-0.08072,0.093233,-0.92546,-0.61906,0.059968
-0.11612,0.041962,-0.053864,-0.027314,0.12375,-1.5575,-1.0207,0.056001
-0.1442,-0.074922,-0.044099,0.009308,-0.0096132,0.25986,-0.28397,0.074006
-0.22538,-0.081636,-0.11337,-0.090791,-0.0062562,0.25467,0.06363,0.077974
-0.19089,0.041657,-0.084077,-0.081636,-0.051423,0.072175,-0.33036,0.094453
-0.16403,0.065156,-0.053254,-0.1561,-0.083162,0.18021,-0.04593,0.053254
-0.10513,0.059968,-0.069123,-0.10727,0.0053407,0.11124,0.19669,0.10819
-0.028534,0.067597,-0.041657,0.058747,0.016022,0.032807,0.19577,0.068513
0.04593,-0.025483,-0.040436,-0.41489,0.016938,0.12009,0.56138,0.11917
0.053559,-0.095674,-0.016022,-0.10941,0.0010681,0.060273,0.52232,0.0065614
0.1323,-0.20462,0.02182,0.17411,-0.040742,0.0044251,0.11582,0.012055
0.10422,-0.45609,0.14328,0.16648,0.17502,-0.068513,-0.96635,-0.1619
0.082856,-0.28275,-0.084382,0.076753,0.16434,0.022126,-0.4567,-0.15274
0.051423,-0.040436,-0.13565,-0.13687,-0.015717,0.11307,0.019379,-0.12406
-0.025483,0.13474,-0.1265,-0.16953,-0.048371,0.070649,0.18265,-0.1387
-0.10178,0.19821,-0.096895,-0.11307,-0.12406,0.041352,0.13443,-0.0074769
-0.069123,0.11337,-0.049897,0.025483,-0.096895,0.12131,0.3444,0.10666
0.013275,0.058137,-0.10758,-0.31632,-0.0096132,0.057221,0.29984,0.13779
0.072175,-0.06363,-0.14694,-0.20066,-0.033417,-0.024262,0.20706,0.06363
0.022126,-0.024872,-0.086824,-0.077668,-0.027314,-0.041657,0.1207,-0.031281
-0.095064,0.020294,-0.0090028,0.0016785,-0.018158,-0.068208,-0.35386,-0.057527
-0.043183,-0.048981,-0.0038148,0.0044251,0.14664,-0.11185,-0.47044,-0.01297
-0.015412,-0.10147,-0.06302,-0.09659,0.4686,-0.093538,0.027619,0.017853
-0.016938,0.033112,-0.034333,-0.12131,-0.010834,0.078279,0.10758,0.0050355
0.023957,-0.058747,-0.0016785,-0.059052,-0.12161,0.050202,-0.45151,-0.034943
-0.019074,-0.12772,-0.002594,-0.028534,-0.017243,0.014496,-0.056916,0.0047303
0.034028,-0.23056,-0.023651,-0.13474,-0.051728,0.08072,0.36454,0.059968
0.0086976,-0.20005,-0.024262,-0.028229,-0.026398,0.14694,0.3447,0.1088
-0.028534,-0.13352,-0.028229,0.10971,0.013886,0.099641,0.50797,0.07187
-0.02884,-0.042878,-0.069123,-0.092317,0.076753,0.031586,0.58427,0.042878
-0.040436,-0.0047303,-0.094453,-0.10513,0.10605,-0.0028992,0.80919,0.0019837
-0.067597,0.038605,-0.070039,0.0077821,0.094759,-0.17319,0.19181,-0.103
-0.064546,0.11948,-0.12955,-0.082246,0.069429,-0.29801,-1.2468,-0.1207
-0.052949,0.20981,-0.13474,-0.31357,0.088045,-0.15366,-1.7302,-0.11368
-0.10575,0.062409,-0.088655,0.081636,-0.21622,0.13993,-0.34928,0.042267
-0.13443,0.019989,-0.090791,-0.39231,-0.4152,0.1738,0.12894,0.12284
-0.099031,-0.027314,-0.066987,-0.035248,-0.14755,-0.17685,0.36728,0.089265
-0.082246,0.0071717,-0.075837,-0.2388,0.013275,-0.0086976,0.31998,0.053864
-0.049592,-0.014801,-0.013581,0.23972,0.091402,0.045014,0.20157,0.034028
-0.010529,-0.055695,-0.015717,0.12161,0.077974,0.058747,0.17105,0.052949
0.020294,-0.033722,-0.0206,0.07187,0.094759,0.1088,0.16159,-0.052033
0.039216,-0.038605,-0.0099184,-0.32303,0.036164,0.13931,0.21714,-0.047761
0.016938,-0.14755,-0.010834,0.0044251,-0.077363,0.13199,0.31205,-0.0047303
-0.044404,-0.072175,-0.029145,0.038911,0.041962,-0.0035096,0.26017,-0.0050355
-0.0068666,-0.074006,-0.043793,-0.1146,0.11093,-0.10727,0.13931,0.035248
0.019989,-0.10452,-0.056306,0.068208,0.031281,-0.1738,-0.51743,0.023041
0.045014,-0.15,-0.04715,-0.15061,0.016938,-0.0013733,-0.37613,0.033722
0.053864,-0.19821,-0.056611,-0.35355,0.10636,0.05539,0.23911,0.0028992
0.066377,-0.2089,-0.062715,-0.15152,0.034333,0.00045777,0.1912,0.012055
-0.0047303,-0.047456,-0.089265,-0.059663,-0.033112,0.0028992,0.060578,-0.014496
-0.06363,0.099336,-0.13138,-0.057527,-0.035248,0.05539,-0.16373,0.0041199
-0.095979,0.088045,-0.095369,-0.034333,-0.041047,0.10758,0.19699,0.062104
-0.10025,0.079194,-0.078279,0.014496,-0.0086976,0.033417,0.26139,0.075227
-0.0056458,0.099947,-0.098421,-0.087129,0.057527,-0.069123,0.22354,0.11917
-0.064546,0.091707,-0.062715,-0.10513,0.02884,0.012055,0.13931,0.041352
-0.11398,0.015717,-0.049897,-0.10452,-0.015717,0.019989,-0.26169,0.023957
-0.14817,-0.037995,0.0080873,-0.10971,-0.030976,0.019074,0.59373,0.08011
-0.087434,-0.073396,-0.0016785,-0.085298,-0.062104,0.1146,0.77287,0.045319
-0.056001,-0.044404,-0.06424,-0.098726,-0.053864,0.10178,-0.14481,-0.0035096
-0.016632,-0.082246,-0.034333,-0.18967,0.019989,0.17777,-1.6149,-0.13931
0.067597,-0.15213,-0.023651,-0.042573,0.020905,0.048981,-1.335,-0.14633
0.11032,-0.16587,-0.049287,0.036164,-0.040436,-0.10086,0.02121,-0.14694
0.018769,-0.016632,-0.073396,0.038911,0.027924,-0.085603,0.14298,-0.14633
-0.015717,0.051423,-0.022431,-0.02945,0.22721,-0.53269,0.25742,-0.012665
-0.0068666,-0.027314,-0.016632,0.28641,0.1442,-0.46586,0.3151,0.076448
-0.019684,-0.048676,-0.098116,-0.14145,0.096284,0.11368,0.11704,-0.026398
-0.061494,-0.040436,-0.055085,-0.25223,0.11215,0.12253,0.025177,-0.0035096
-0.083162,-0.017853,-0.078279,-0.32731,-0.061494,0.24247,0.34714,0.11551
-0.08835,-0.0016785,-0.08896,-0.073396,-0.092012,0.13748,0.35904,0.16617
-0.03769,0.0035096,-0.12314,0.031281,-0.060883,0.067292,0.18326,0.13443
-0.053559,0.084382,-0.13657,-0.1677,-0.026703,0.049592,0.017243,-0.020905
-0.024262,0.080415,-0.11368,-0.075837,-0.077058,0.076448,0.0038148,0.011139
0.065461,-0.14542,0.019684,0.081941,-0.061799,0.078889,0.19883,0.15335
0.024262,-0.084077,0.0022889,-0.073091,0.03006,0.00076295,-0.010834,0.1207
-0.014191,-0.066987,0.019379,-0.10269,0.035248,-0.0041199,-0.14176,0.036164
0.018158,-0.10086,0.012055,-0.030976,-0.0022889,0.027314,-0.26749,-0.0044251
0.024872,-0.1445,-0.016022,-0.058442,0.030976,-0.11795,-0.3505,-0.049592
0.0068666,-0.1146,-0.036469,-0.088655,0.062104,-0.043183,-0.1799,-0.13779
0.0047303,-0.17075,-0.027619,-0.077668,0.023041,0.30289,0.087434,-0.093538
0.019989,-0.1915,-0.051728,-0.033112,0.013275,0.14694,0.1503,-0.10697
0.022736,0.045624,-0.10269,-0.056306,-0.01297,0.044099,0.32303,-0.082856
-0.027008,0.11032,-0.12253,-0.12863,-0.023041,-0.27787,0.35477,-0.025788
-0.11032,0.0206,-0.1146,-0.15061,0.064546,-0.7274,0.19394,-0.023651
-0.13382,0.053864,-0.13443,-0.22019,0.040436,0.13748,0.099947,0.023346
-0.11521,0.11276,-0.095369,-0.16587,-0.025483,0.25193,-1.0469,0.121
-0.11704,0.057221,-0.057221,-0.084993,-0.023346,0.071565,-0.11917,0.14328
-0.086213,-0.0056458,-0.070039,0.096895,-0.025177,0.14359,0.5742,0.096895
-0.051118,-0.0077821,-0.058747,0.05478,-0.049592,0.098421,0.14664,0.090486
-0.058137,-0.048981,-0.069429,-0.23819,-0.085603,0.11917,0.24949,0.0068666
-0.024567,-0.068208,-0.016632,-0.19425,-0.012665,0.042573,-0.024872,-0.052644
0.010834,-0.074311,-0.01236,-0.08896,0.074311,-0.052949,-0.2034,0.036774
0.050507,-0.070954,-0.022431,-0.049287,0.016022,-0.045014,0.065766,0.053559
0.086213,-0.0080873,-0.0047303,-0.039521,-0.0086976,0.022736,0.10452,-0.052949
0.10605,-0.072175,0.012055,0.17411,0.04715,-0.017548,-0.64652,-0.061799
0.069429,-0.068513,-0.029145,0.077668,0.11063,-0.072175,-0.33005,-0.08011
0.043488,-0.063325,-0.046235,-0.11307,0.11978,-0.048371,0.074617,-0.082246
-0.0019837,-0.075532,-0.066682,-0.13504,0.10636,-0.07248,-0.041657,-0.03769
-0.0074769,-0.13779,-0.07126,-0.12467,0.041962,-0.029755,0.071565,0.0013733
-0.098421,-0.046845,-0.098726,-0.13321,-0.032807,0.017243,0.030976,0.032197
-0.12741,0.019379,-0.10422,-0.11307,-0.045014,0.05478,0.0050355,-0.0019837
-0.17899,0.073396,-0.11154,-0.073091,-0.074006,0.19333,0.088655,0.025483
-0.17716,0.10666,-0.14054,-0.13779,-0.065461,0.30991,0.30625,0.036774
-0.11154,0.099336,-0.10483,-0.16312,-0.026703,0.09781,0.41978,0.1091
-0.059358,0.033112,-0.070344,-0.1033,-0.091402,-0.056001,0.17014,0.068513
-0.0972,-0.018158,-0.053864,-0.1268,-0.11124,0.08835,0.46525,0.10239
-0.018769,-0.10361,-0.023651,-0.039216,0.023651,-0.49241,0.23789,0.17868
0.047761,-0.12253,0.012055,0.076753,0.09781,-0.056306,-0.17685,0.06363
-0.014191,-0.077363,0.014496,0.08072,0.11063,0.21347,-0.82048,-0.036469
0.034943,-0.098726,-0.028534,-0.047456,0.039521,-0.22263,0.066682,0.042878
0.06424,-0.12772,-0.0074769,-0.099336,0.011444,-0.03769,0.062104,-0.052949
0.039521,-0.11673,-0.043183,-0.093233,0.02182,-0.02945,-1.1421,-0.17319
0.052949,-0.14359,-0.061799,-0.20401,0.0041199,0.056306,-0.019684,-0.060883
0.071565,-0.01236,-0.085908,-0.23087,0.010834,0.013886,0.045319,-0.048676
0.025483,0.0016785,-0.038911,0.042573,0.030365,-0.043488,-0.39078,-0.085603
0.057832,-0.095674,-0.046235,-0.049287,0.029755,0.016022,0.1735,-0.042878
0.018158,-0.077974,-0.076143,-0.042878,-0.016938,0.065461,0.39384,0.0090028
-0.09781,-0.0041199,-0.08835,-0.42679,0.030976,0.046845,0.28397,0.07187
-0.13413,-0.048676,-0.11643,0.15732,0.065461,0.030671,0.12222,0.13901
-0.14481,0.040436,-0.1146,0.34684,0.055695,0.019074,0.44572,0.1091
-0.11734,0.06363,-0.10758,-0.17258,-0.025177,-0.0068666,0.47929,0.084077
-0.06363,0.074006,-0.044099,-0.14328,-0.041657,-0.029755,-0.009308,0.050507
-0.016938,0.0065614,-0.061189,-0.12589,0.067597,-0.074311,-0.75029,-0.043183
-0.041657,-0.037385,-0.056611,-0.13535,-0.030976,0.045624,-0.59831,-0.097505
-0.0062562,-0.06363,-0.039216,-0.16159,-0.096895,0.084993,-0.11704,0.02182
0.013275,-0.097505,0.017853,-0.051728,-0.077668,0.085298,0.063325,0.041047
0.043488,-0.1384,0.077058,0.095064,-0.039521,0.084993,0.28,-0.026398
0.057832,-0.078279,-0.024567,-0.00076295,-0.023041,0.034333,0.23331,0.016938
-0.00076295,0.030671,-0.084077,-0.11856,0.095369,-0.14084,0.016022,-0.078279
-0.013275,0.12924,-0.053254,-0.21317,0.1854,-0.074311,-0.0032044,-0.075227
-0.024872,-0.067597,-0.036469,0.091402,0.13046,0.0090028,-0.059052,-0.059968
-0.06302,-0.14786,-0.089265,-0.077363,-0.00015259,0.035248,-0.053254,-0.10636
-0.08835,-0.10086,-0.096284,-0.21225,-0.012055,-0.01297,-0.039521,-0.10117
-0.030365,0.0022889,-0.11154,-0.13199,-0.073091,0.080415,0.092317,-0.019684
-0.099641,0.058747,-0.11337,-0.11063,-0.099031,0.13199,0.2501,0.081941
-0.087739,0.034028,-0.1088,-0.095369,-0.047761,0.027314,0.2269,0.21164
-0.077668,0.02945,-0.08072,-0.072786,-0.015412,-0.058137,-0.30289,0.14267
-0.11734,0.059663,-0.086824,-0.10452,0.0090028,-0.068208,-0.22812,0.088045
-0.1323,0.014191,-0.060883,-0.098726,-0.024872,0.25376,0.32822,0.16251
-0.041962,-0.048981,-0.056611,-0.0972,-0.060883,0.44663,0.49393,0.11154
0.013886,-0.079805,-0.032502,-0.10788,-0.0062562,0.35233,0.39841,0.022736
0.02884,-0.1268,0.00045777,-0.074311,-0.0050355,0.18387,0.14511,-0.059358
-0.0083925,-0.037995,-0.042573,-0.091707,0.014801,-0.87907,-0.22293,-0.02945
0.036164,-0.03006,0.026703,-0.19425,0.085298,-1.133,-0.61112,-0.091096
0.056001,-0.10605,0.0038148,0.36728,0.070649,0.27207,-0.23545,-0.11551
0.0074769,-0.084993,-0.090791,0.11002,0.080415,0.14878,-0.35264,-0.081636
0.026703,-0.13413,-0.055695,-0.53819,0.090791,0.093538,-0.28,-0.010224
0.031586,-0.11337,0.029755,0.22965,-0.074617,0.20737,0.50217,0.045319
0.057221,-0.067903,-0.056306,0.14633,-0.038605,0.14267,0.62791,0.0206
0.005951,-0.074311,-0.02182,-0.38407,0.14725,-0.048981,0.20706,-0.027314
-0.090181,0.0038148,-0.10849,-0.3563,0.12711,-0.12497,-0.87846,0.0038148
-0.11002,0.060578,-0.14328,0.15549,0.011139,0.048676,-0.38621,0.09659
-0.1268,0.026093,-0.12955,0.053559,-0.068818,0.078584,0.44511,0.1442
-0.098421,-0.0028992,-0.061799,-0.08957,-0.032807,0.027924,0.21134,0.14328
-0.061799,0.10422,-0.094148,-0.10391,-0.0065614,0.0028992,-0.15274,0.13321
-0.033112,-0.034943,-0.08957,-0.053254,-0.027619,0.0071717,-0.30442,0.034028
-0.018463,-0.025483,-0.073396,0.033417,-0.083772,0.067597,0.031281,-0.033417
0.017853,-0.060883,-0.0086976,0.041962,-0.053864,0.11795,0.37217,-0.055085
0.069123,-0.11887,0.0096132,-0.31846,0.058137,0.077058,0.52628,-0.095064
0.07126,-0.10636,-0.014191,-0.262,0.019684,0.014801,0.079194,-0.21408
0.039521,-0.052033,-0.0090028,-0.16587,0.025483,-0.076448,-1.2224,-0.24674
0.0099184,-0.047456,-0.021515,-0.051423,0.10758,0.084688,-0.5864,-0.12711
-0.019379,-0.076143,-0.026093,0.032502,0.040436,0.18845,0.37247,0.021515
-0.013275,-0.11673,-0.048371,0.017853,-0.0050355,0.030976,0.1854,0.062409
-0.055085,-0.022126,-0.057221,-0.010834,0.00076295,-0.012665,0.17868,0.07187
-0.036469,-0.025788,-0.08896,-0.050202,0.025177,-0.4094,0.012055,0.072175
-0.025177,-0.057527,-0.099031,-0.06363,0.012665,-0.56931,-0.10636,0.047456
-0.12863,-0.022431,-0.13107,-0.20768,-0.087129,0.15518,0.17075,0.063935
-0.13535,0.028534,-0.11368,-0.15366,-0.0083925,0.21958,0.21561,0.079194
-0.08835,0.071565,-0.095064,-0.10971,0.04593,0.13901,0.20035,0.12467
-0.085298,0.14115,-0.060273,-0.085908,-0.043488,0.13016,0.20157,0.10025
-0.078889,0.16251,-0.091402,-0.056306,-0.086824,0.088655,0.19669,0.13169
-0.029755,0.034333,-0.045014,-0.068513,-0.054475,0.094453,0.19028,0.096895
-0.0068666,0.013581,-0.040436,-0.082551,-0.02121,0.084993,0.16831,0.069734
0.051118,-0.13565,0.019989,-0.089876,-0.032502,0.13901,-0.075227,-0.016327
0.011139,-0.17136,-0.0086976,-0.036164,-0.02945,-0.010834,-0.077974,-0.090181
0.027008,-0.21012,-0.0041199,-0.038911,0.045319,-0.12406,-0.05539,-0.11398
0.068208,-0.22538,0.0022889,-0.035248,0.077974,0.09659,0.34318,-0.10636
0.0383,-0.1146,-0.038911,-0.0096132,0.044404,-0.03006,0.29831,-0.11856
0.045319,-0.047456,-0.034638,-0.018769,0.11673,-0.17075,-0.89708,-0.12741
0.020294,-0.051423,-0.049897,0.056916,0.066682,-0.06424,-1.0466,-0.06363
0.025788,-0.070344,-0.086824,-0.021515,-0.025177,0.048981,0.20035,-0.083162
0.062104,-0.064546,-0.10269,-0.18479,0.018769,0.078889,0.14633,-0.032502
0.0038148,0.033722,-0.13291,-0.070344,0.12985,-0.081636,0.43534,0.033112
-0.081025,0.12039,-0.11826,-0.0053407,0.099947,-0.057832,0.53117,0.043488
-0.085908,0.065156,-0.093233,-0.22629,-0.067903,0.0090028,-0.14237,0.089265
-0.091402,-0.0035096,-0.08957,-0.17197,-0.11398,-0.0074769,-0.13931,0.1384
-0.19852,0.092012,-0.090791,-0.13901,-0.093843,0.08957,0.22385,0.081941
-0.23453,0.067597,-0.053864,-0.099336,-0.092012,0.05417,-0.60197,0.168
-0.11917,0.025788,-0.023041,0.005951,-0.026703,0.050813,0.38712,0.18479
-0.022126,0.0077821,-0.039826,-0.010224,0.1149,-0.02182,0.39109,0.018158
-0.012055,-0.11337,-0.043183,-0.075227,0.44175,-0.19242,-0.57908,-0.14206
-0.022126,-0.082246,-0.027008,-0.091707,0.14237,-0.040436,-0.58183,-0.099947
-0.02945,-0.21775,0.025788,-0.042267,-0.19486,0.052338,0.45396,0.02121
-0.059968,-0.15152,-0.048676,-0.099947,-0.065461,0.0053407,0.37613,0.016632
0.0077821,-0.078889,-0.038605,-0.20584,-0.03769,0.066682,-0.071565,0.060273
0.037995,-0.090486,-0.027619,-0.18326,0.002594,0.022736,-0.29191,0.056001
-0.013581,-0.023651,-0.073396,-0.052644,0.010529,0.017243,-0.32547,-0.020905
-0.012055,-0.073396,-0.024872,-0.061494,-0.057832,0.14328,0.60105,0.062409
-0.032502,-0.01236,-0.087129,-0.15854,-0.092012,-0.012665,0.68711,0.11978
0.011139,-0.0019837,-0.10727,0.11704,-0.059358,-0.019074,-0.041962,0.073701
0.019989,-0.034943,-0.11307,0.26261,0.002594,-0.0016785,-0.51743,0.095369
-0.0062562,-0.017548,-0.1207,-0.18173,0.065461,0.24247,0.20249,0.03769
-0.023651,0.10056,-0.11551,-0.095369,0.022126,0.21408,0.10575,-0.047761
-0.053254,0.061189,-0.0383,-0.098726,0.019684,-0.33188,0.21653,-0.016632
-0.082856,-0.023651,-0.036774,-0.10666,0.011139,-0.09781,-0.1146,-0.024262
-0.0206,-0.093538,0.0035096,-0.08835,-0.0056458,0.044404,-0.29618,-0.067903
0.012055,-0.027924,-0.062104,-0.1799,0.040131,-0.033112,-0.013275,-0.17166
0.029145,0.027314,-0.051118,-0.17655,-0.0032044,-0.019684,-0.029145,-0.1796
0.11612,-0.0044251,-0.0096132,-0.14145,-0.028229,-0.022736,-0.77684,-0.11429
0.063325,-0.10178,-0.010834,-0.11032,-0.047456,0.05539,0.0016785,0.045319
0.031891,-0.13687,0.016022,0.082856,0.0071717,0.095979,0.45609,0.079805
0.017243,-0.14359,0.0019837,0.21073,0.04593,0.0068666,0.16251,0.031891
-0.0028992,-0.14237,-0.022736,-0.032807,0.041352,0.048981,0.2742,-0.059358
-0.0062562,-0.23941,-0.08011,-0.13901,0.082551,0.070344,0.19242,-0.11551
-0.063325,-0.032807,-0.12131,-0.18021,0.073396,0.0086976,-0.38254,-0.081331
-0.12741,0.11521,-0.13107,-0.11948,-0.032807,0.25864,-0.59403,-0.073091
-0.15305,0.12253,-0.13046,-0.04654,-0.092012,0.27787,0.1564,0.084382
-0.15366,0.11948,-0.13107,0.017548,-0.018463,-0.4686,0.34897,0.13535
-0.07126,0.027314,-0.086824,-0.27451,0.015717,-0.29892,0.53605,0.092622
-0.055085,-0.019989,-0.073396,-0.21164,0.024262,-0.21958,0.59312,0.013581
-0.040436,0.0035096,-0.066377,0.069734,0.11978,-0.63371,0.21988,0.046845
-0.043488,0.068513,-0.049287,-0.27726,0.0383,0.34104,-0.15793,0.081331
0.017548,-0.057527,-0.033112,-0.64897,-0.024567,0.20005,-1.3704,0.045014
0.067597,-0.1384,-0.025788,0.6453,-0.035554,-0.010224,-1.1443,0.049592
0.045624,-0.1088,0.0080873,0.28214,-0.019074,0.11917,0.27817,-0.0010681
0.013581,-0.15457,-0.030976,-0.14145,-0.067597,0.16526,0.30869,-0.018463
0.010529,-0.21775,-0.0086976,-0.079194,0.015717,0.18753,0.46342,-0.025788
-0.04715,-0.068208,0.00076295,-0.16953,0.14237,0.033112,0.32822,-0.016632
-0.10056,-0.070954,-0.023041,-0.2269,0.069429,-0.013581,0.10849,0.017548
-0.092012,0.0013733,-0.066682,0.23056,0.00076295,0.103,-0.028229,0.057221
-0.12589,0.084688,-0.0972,-0.26169,-0.020905,0.17227,0.14603,0.15274
-0.10727,0.13199,-0.10025,-0.14847,-0.075532,0.14328,0.34226,0.17838
-0.070649,0.11215,-0.14908,-0.13352,-0.046845,0.18418,0.4625,0.049287
-0.076143,0.035859,-0.12894,-0.092927,-0.041352,0.079194,0.26627,-0.01297
-0.11002,0.014496,-0.1088,-0.23911,0.027619,-0.63767,-0.6685,-0.015106
