0.034333,0.017548,-0.064851,0.18204,0.018158,-0.070344,-0.83879,-0.16678
-0.0041199,0.11276,-0.085908,-0.0035096,0.033417,-0.074617,-0.010834,-0.068208
-0.030671,-0.29221,-0.036164,-0.16861,0.074617,-0.033417,-0.017548,0.016938
-0.17197,0.093843,-0.15396,-0.11917,0.025177,0.016022,0.28336,0.092927
-0.15946,0.14054,-0.14694,-0.15579,-0.055695,0.047456,0.21317,0.18235
-0.089876,0.052338,-0.046235,-0.17136,-0.067903,0.058442,0.103,0.18936
-0.1442,0.14115,0.024567,-0.18387,-0.0383,0.039216,0.10178,0.1088
-0.12528,0.088655,-0.024567,-0.21073,-0.051118,0.043488,0.08957,0.091402
-0.022736,0.043183,-0.15457,-0.06424,0.0090028,0.040131,0.10605,0.10758
-0.093233,-0.15793,0.14542,0.11124,0.079805,0.013275,0.010529,0.017853
-0.056001,-0.2504,0.14084,0.040742,0.0028992,0.023346,-0.010529,0.018158
0.11215,-0.15946,0.10513,0.12222,0.03769,0.002594,0.085298,-0.033722
0.085908,-0.20218,-0.22721,0.1976,0.045319,-0.031586,0.059358,-0.1561
0.10391,-0.16678,-0.015412,-0.1384,0.02884,-0.015717,-0.019379,-0.098421
0.067292,-0.037385,-0.18265,-0.087434,0.016632,-0.0016785,-0.13993,-0.061494
-0.090181,0.063325,-0.11734,-0.40543,0.057221,-0.0056458,-0.34257,-0.034638
-0.11337,-0.016022,0.1091,-0.19425,0.07248,0.033112,-0.095674,-0.00076295
-0.15885,0.019684,-0.096284,0.22049,-0.023346,0.070649,0.26566,0.009308
-0.066987,0.085298,-0.20401,-0.022431,-0.067903,0.0028992,0.1323,0.06363
-0.0032044,-0.042267,-0.15091,0.06302,0.0077821,-0.11215,0.002594,0.0038148
0.044099,-0.22232,-0.089265,-0.27176,0.15488,-0.03769,0.12253,0.036164
-0.0090028,0.24765,-0.16526,-0.17105,0.081941,0.065766,0.14481,0.088655
0.069429,-0.078279,-0.027924,-0.023651,-0.078889,-0.013275,-0.060578,-0.0090028
-0.025788,-0.057527,0.024567,-0.17197,0.00045777,-0.033722,-0.0795,-0.039216
-0.052644,0.073396,-0.013581,-0.16739,0.0065614,0.060578,-0.015412,0.02121
-0.050507,0.17624,-0.082246,-0.13169,-0.096895,0.09659,0.075837,0.076448
-0.11826,0.094453,-0.042267,-0.11398,-0.071565,0.036164,0.02945,0.027314
-0.15976,0.19425,-0.01236,0.053864,-0.041657,0.016327,-0.018463,0.019684
-0.064546,-0.38804,0.073701,-0.061189,-0.0062562,-0.0096132,-0.0028992,0.044099
-0.079805,-0.51804,-0.012665,-0.082551,-0.0096132,0.019379,0.043183,0.032197
0.018158,-0.52445,-0.0056458,0.11582,0.0383,0.016327,0.15305,-0.044709
0.20066,-0.32212,-0.11734,-0.019379,0.1265,-0.019379,0.1091,-0.081025
0.067292,0.37461,-0.11093,-0.24796,0.090486,-0.04715,-0.12222,-0.10422
0.047456,0.29343,-0.03769,-0.17197,-0.015717,-0.024872,-0.50828,-0.06302
0.066072,0.25162,-0.19272,-0.16464,-0.027008,0.037995,-0.021515,0.065461
-0.027619,-0.2208,-0.13291,-0.2443,-0.010834,0.019074,0.21805,0.03769
-0.22751,0.1442,-0.14725,0.033417,-0.074617,0.040742,0.15061,0.039216
-0.0972,0.095979,-0.062409,0.20218,-0.11185,0.0795,0.094148,0.14328
-0.048371,0.059663,0.0019837,-0.035248,0.059663,-0.056306,-0.10117,0.07248
-0.10941,0.070344,-0.040436,0.022126,0.089876,-0.079805,-0.28,0.015412
-0.050813,-0.070039,-0.14511,-0.19333,0.096284,0.058747,-0.047456,0.097505
0.057832,-0.32792,0.095064,-0.076448,-0.06363,0.11582,0.28428,0.096895
0.040436,-0.23362,0.13504,0.043793,-0.089876,0.027314,0.093538,-0.0074769
0.06424,-0.019684,-0.21408,-0.23087,0.029145,-0.041352,-0.015106,-0.053559
-0.0013733,0.017548,-0.01236,-0.12558,0.068208,-0.057221,-0.029145,-0.096284
-0.058137,-0.059358,-0.064546,-0.02945,0.077974,-0.0077821,-0.018463,-0.085298
-0.14145,-0.11887,-0.03006,-0.041657,0.019989,0.065766,0.24308,-0.059663
-0.067903,-0.088655,0.0086976,-0.13504,-0.11215,0.13107,0.25803,0.009308
-0.12772,0.033417,-0.08072,-0.14176,0.010834,0.083772,-0.066072,0.038911
-0.024872,0.21622,0.0047303,-0.01236,0.078584,-0.076143,-0.30503,0.02945
0.14298,-0.24063,-0.051118,-0.072175,0.091402,-0.2031,-0.52842,-0.074617
-0.04715,-0.11734,-0.15671,-0.088655,-0.02121,-0.065156,0.087739,-0.058747
-0.10605,0.22019,-0.24338,-0.19699,0.037385,-0.02121,0.2916,0.064546
-0.022736,-0.024262,-0.17166,-0.018463,0.035554,0.065766,0.19455,0.15274
-0.028229,0.14969,-0.02182,-0.12558,-0.041352,0.058747,0.26108,0.07248
0.04715,0.14633,-0.067903,0.024567,-0.052033,0.051728,0.23484,0.019074
0.18112,-0.1265,-0.052949,0.41581,0.017853,0.014801,0.081331,-0.055085
0.017548,-0.11978,0.10544,-0.30442,0.031281,-0.055085,-0.5034,-0.1442
-0.075532,0.074311,-0.040742,-0.2443,0.057832,-0.059663,-0.88792,-0.043793
-0.16068,0.085298,-0.096895,-0.28183,0.032807,0.037079,0.1564,0.091402
-0.11337,-0.36484,-0.0041199,-0.18692,-0.013275,0.034028,0.2739,-0.009308
-0.014801,-0.56626,-0.059968,-0.070344,-0.064851,0.073396,0.062104,0.0065614
-0.088045,-0.087739,0.070039,0.10391,-0.085908,0.11124,0.09781,-0.0206
0.068513,0.12222,-0.0206,-0.33585,-0.029145,0.058442,0.071565,-0.00076295
0.11612,0.20523,0.040742,0.034028,-0.0032044,0.026703,0.11063,-0.0041199
0.13199,-0.29679,-0.005951,0.078279,0.050507,-0.086519,0.0077821,-0.097505
-0.11002,-0.11582,-0.14969,-0.092927,0.16587,-0.14817,-0.12375,-0.14817
-0.048981,-0.19303,-0.18112,0.00045777,0.027924,0.0206,0.065156,0.0068666
-0.18997,0.17838,-0.096284,-0.11551,0.019379,0.022126,0.26902,0.12924
-0.10361,0.19791,-0.14542,-0.21134,0.094453,-0.0041199,0.3035,0.15457
-0.066072,0.019074,-0.088655,0.74418,0.00045777,0.050507,0.45212,0.18235
-0.11368,0.14328,-0.13443,-0.26322,0.061799,-0.010224,0.24704,0.11215
-0.11948,0.1265,-0.058747,-0.44083,-0.12467,-0.042878,-0.79637,0.18875
-0.13138,0.04654,-0.053254,-0.28367,-0.077363,0.024262,-0.81529,0.14298
-0.10513,0.0099184,-0.11887,-0.13687,-0.010834,0.084688,0.3386,0.026703
-0.14755,0.14389,0.022736,0.0065614,-0.12131,0.11917,0.21653,-0.0041199
-0.084382,-0.14145,0.091402,-0.1387,-0.0050355,0.052949,0.18784,-0.041047
0.099947,-0.75486,0.19455,-0.050202,0.02884,0.0044251,0.060578,-0.051728
0.13382,-0.30655,-0.18692,-0.011139,-0.0010681,0.042573,-0.035859,-0.071565
0.16739,0.080415,-0.090486,-0.016327,0.087434,-0.0099184,0.076143,-0.16587
0.24582,-0.032807,-0.050813,-0.033112,0.085603,-0.052949,0.015717,-0.17044
0.034028,0.27207,-0.092317,-0.0041199,-0.01297,-0.0047303,0.025483,-0.13748
-0.013581,-0.046845,0.10819,-0.19791,0.057832,-0.027619,0.02121,-0.091402
-0.060883,0.0077821,-0.20798,-0.18936,0.14939,-0.04593,0.030976,0.033722
-0.16159,0.083467,-0.16892,-0.041047,0.031891,-0.016022,-0.21286,0.05539
-0.08835,0.035554,-0.077363,0.064851,-0.070649,0.024262,-0.10422,0.086519
-0.018769,-0.051423,-0.16007,-0.1915,-0.020905,0.024872,0.15915,0.077974
0.053559,-0.069429,0.039521,-0.20706,-0.036469,0.00076295,-0.0013733,0.026093
0.083772,-0.16495,0.0013733,0.07187,-0.017548,0.02945,0.021515,0.057221
-0.10147,0.062409,0.034638,0.018463,0.056001,0.0041199,0.0010681,0.061799
-0.12009,0.029755,-0.15579,0.009308,-0.095674,0.06363,0.0096132,0.055085
0.053559,-0.35294,-0.044099,-0.19516,-0.012055,0.018158,-0.028534,0.047761
0.035554,-0.1384,-0.050202,-0.11917,0.080415,-0.035248,-0.081331,-0.013581
-0.05539,0.13535,-0.069429,-0.12161,-0.0068666,-0.0035096,-0.083467,-0.027314
-0.12589,0.1033,-0.091402,-0.10636,-0.0206,-0.040131,0.0090028,-0.045624
-0.090181,0.0065614,-0.02182,-0.16495,-0.033112,0.050813,0.30777,0.013275
-0.02884,-0.11368,-0.037995,-0.26322,-0.033722,0.070649,0.16953,0.039826
-0.0019837,-0.168,0.036774,-0.17685,-0.028534,0.048371,-0.054475,-0.012665
0.050507,-0.21042,-0.012055,-0.081331,0.055695,-0.021515,-0.095369,-0.064546
0.033112,-0.21744,0.076143,0.49577,0.14817,-0.066987,-0.08957,-0.10361
-0.077058,0.19791,-0.17258,0.35508,0.11795,-0.0071717,0.0038148,-0.056001
-0.052033,0.071565,-0.12131,-0.2504,0.061189,0.018158,0.079194,0.0096132
-0.13809,0.18143,-0.19577,-0.38346,0.0019837,-0.0035096,0.12436,0.076448
-0.16434,0.30564,-0.22629,-0.1384,-0.057221,0.012665,0.075532,0.1564
-0.029755,0.1564,-0.034028,-0.12436,-0.10819,0.043183,0.047456,0.18173
-0.015412,-0.20645,-0.027619,-0.10056,-0.13993,0.038911,0.0074769,0.075532
0.10697,-0.55406,-0.0206,-0.18418,-0.075837,0.048371,-0.02884,0.031586
-0.0044251,-0.12406,-0.04715,-0.4799,0.0795,-0.0016785,-0.035554,0.015106
-0.22568,0.14755,0.058137,0.50126,-0.0068666,0.015106,0.017243,-0.016938
-0.079805,0.1677,0.036469,-0.061799,-0.050507,0.041657,0.075532,0.02182
0.051728,-0.15488,-0.07126,-0.44572,0.046235,0.051118,0.075227,0.050202
0.026703,-0.1564,-0.084382,-0.056916,0.16526,-0.026093,-0.099031,-0.10758
-0.025177,-0.12284,-0.0053407,0.23209,0.16098,-0.050507,-0.10208,-0.031891
0.046235,-0.017853,0.01236,0.21073,0.081331,0.0086976,0.011749,-0.062104
0.031891,0.049592,-0.076143,0.025788,0.04715,0.010834,0.045319,-0.063325
0.057527,-0.084993,-0.052644,-0.18723,0.096284,-0.063935,0.10025,-0.027314
0.0019837,-0.014191,-0.091402,-0.21897,0.036164,-0.027619,0.15549,0.020905
-0.24338,-0.1146,-0.098116,-0.056306,-0.057221,0.027924,-0.1857,-0.052033
-0.21103,0.012665,-0.11093,-0.099641,-0.049287,0.035248,0.009308,0.019379
-0.21317,0.30747,-0.17777,-0.27237,-0.049592,0.039216,0.41917,0.074311
-0.0035096,0.27634,-0.18723,-0.25498,-0.059358,0.0083925,0.041657,0.10636
0.049897,0.17716,-0.15763,-0.19699,-0.066682,0.02884,-0.83146,0.042878
0.18967,0.0035096,0.018463,-0.052644,-0.11124,0.036774,-0.39445,0.011749
0.13077,-0.54276,0.098116,0.039521,-0.12741,0.10575,0.51347,0.15091
0.0090028,-0.64836,0.12497,0.083467,-0.020905,0.016022,0.18509,-0.014801
-0.040742,-0.24857,-0.046235,-0.053254,0.13382,-0.093538,-0.056001,-0.030365
-0.0028992,-0.045319,-0.052338,-0.0010681,0.15702,0.0062562,-0.014496,0.065461
0.025483,0.10666,-0.030671,0.16007,0.061494,-0.045014,-0.2504,-0.00076295
0.07187,0.15183,-0.0096132,-0.12741,0.053559,-0.081636,-0.10727,-0.037385
-0.065156,-0.0019837,-0.067903,-0.1799,0.029145,0.0062562,0.08011,-0.064546
-0.040436,-0.026093,-0.10117,-0.16953,-0.0035096,0.017243,0.22995,-0.10117
-0.0050355,0.044099,-0.030976,-0.079805,-0.02945,0.050507,0.37613,-0.016327
-0.04654,0.16312,-0.087129,-0.24125,0.00045777,0.10239,0.36332,0.0080873
-0.11826,0.10452,-0.12528,0.027619,0.031891,0.027008,-0.26658,-0.014496
-0.044404,-0.11582,-0.0795,0.16312,0.051728,-0.069429,-0.92424,0.005951
-0.12955,0.044099,-0.17502,-0.15915,0.037385,-0.022736,0.11307,0.033722
-0.20523,0.21714,-0.11154,-0.30167,-0.053254,0.050507,0.22293,0.0050355
-0.17319,0.032197,-0.18204,-0.18967,-0.067903,0.037385,0.19181,0.05417
-0.11917,-0.10391,-0.014496,-0.16861,-0.1146,0.068513,0.2153,0.092317
-0.062715,-0.47471,0.051728,-0.065461,-0.075837,0.0077821,0.0383,0.08011
-0.027314,-0.18082,-0.12467,-0.074922,-0.010529,-0.032197,0.016938,0.12161
0.0028992,0.31266,0.031891,0.11429,0.00045777,0.0206,0.070344,0.14115
0.27268,-0.082551,-0.031891,0.01297,0.061799,0.031281,0.052949,-0.013275
0.22416,-0.074922,0.11154,0.031281,0.10575,0.027314,0.13718,-0.14603
0.14694,-0.30991,-0.011749,-0.018769,0.10361,-0.015106,0.11093,-0.19425
-0.11582,-0.078584,-0.056611,-0.15,0.16922,-0.085298,0.033722,-0.11551
-0.039521,-0.0044251,-0.11307,-0.11246,0.10208,-0.033722,-0.033112,-0.016632
0.090486,-0.076143,-0.082856,-0.13596,0.019074,-0.017548,-0.16678,0.053864
-0.065156,0.13382,-0.080415,-0.35813,-0.04593,0.032502,-0.11643,0.00045777
-0.23362,0.11551,-0.018769,0.019074,-0.11948,0.045319,-0.24247,0.049592
-0.3563,0.005951,0.024262,0.38254,-0.13993,0.081025,0.091402,0.08011
-0.11612,-0.11246,-0.12467,0.085908,-0.025483,0.048981,0.20371,0.10147
0.040131,-0.0099184,-0.1973,-0.31724,-0.054475,0.060578,0.089265,0.044099
0.067292,-0.1149,-0.26841,-0.64073,-0.027008,0.023957,0.089265,0.0053407
0.21683,-0.042878,0.017548,0.06363,0.2269,-0.10666,-0.070954,0.063935
0.1442,0.030671,-0.092622,0.044099,0.23545,-0.089876,-0.038911,0.029145
0.012055,-0.11765,0.18845,-0.066377,0.062409,-0.0074769,0.0086976,-0.0065614
-0.16709,0.070649,-0.12863,0.33555,0.009308,0.0062562,-0.024872,-0.031281
-0.15671,-0.099336,-0.019074,-0.11246,-0.041962,0.036469,0.050507,0.059358
-0.039521,-0.077974,-0.092012,-0.16312,-0.1912,0.1268,0.081331,0.1445
0.0010681,-0.032807,-0.061799,-0.27451,-0.019074,0.050813,0.035859,-0.023041
0.0065614,-0.23819,0.018158,-0.1445,-0.009308,-0.011444,-0.021515,-0.074006
-0.11307,0.25437,-0.033722,-0.077058,-0.030976,-0.0050355,-0.047456,-0.067597
0.002594,0.12131,0.08896,0.057832,0.066682,0.071565,0.062409,-0.0028992
0.10605,-0.11002,-0.089265,-0.024567,0.053559,0.044404,0.083772,0.024872
-0.032502,0.14786,-0.1384,-0.20493,0.085298,-0.10086,-0.078279,-0.11856
0.00076295,-0.35996,-0.046235,-0.12955,0.039216,-0.041657,-0.060578,-0.096284
0.00045777,-0.14359,-0.036774,0.02121,-0.056611,0.044099,0.023041,-0.0022889
-0.025483,-0.14755,-0.074006,0.1265,0.0047303,-0.017548,0.0071717,-0.020294
0.016632,-0.22232,-0.10117,0.031281,0.035554,-0.0013733,0.1857,0.029145
-0.040436,0.12985,-0.14115,-0.21897,0.091707,-0.01297,0.18784,0.064546
-0.091402,0.29984,-0.16312,-0.25986,-0.0074769,0.048371,0.21592,0.10086
-0.23911,0.15763,-0.11368,-0.2443,-0.11429,0.069429,-0.076143,0.055695
-0.21744,-0.0019837,-0.045624,-0.29313,-0.10086,0.0044251,-0.96544,0.02884
-0.21042,-0.002594,0.049592,-0.1384,-0.14969,0.11124,-0.076143,0.11612
0.020905,-0.33097,-0.010224,0.092927,-0.10697,0.095979,0.30991,0.10056
0.18936,-0.31418,0.072786,0.21164,0.083162,-0.079805,0.086824,0.0041199
0.08835,0.20768,-0.092927,0.066987,0.19913,-0.121,0.081941,-0.10636
0.15091,0.10727,-0.053254,0.040131,0.13504,-0.030976,0.02884,-0.10178
0.15152,0.081941,-0.1088,-0.13474,0.046845,0.010529,0.052338,-0.066072
0.052033,-0.042573,0.038605,-0.17105,-0.0032044,0.023346,-0.021515,-0.087434
-0.1622,-0.38254,-0.046235,-0.090486,-0.019684,0.042878,-0.056611,-0.068818
-0.085603,-0.10819,-0.050507,-0.11154,0.03006,-0.027619,-0.041352,0.045319
-0.028229,0.14725,-0.041657,0.076753,-0.0032044,0.00015259,-0.065156,0.10849
-0.02945,0.16831,-0.14054,0.0074769,0.018158,0.027314,0.091707,0.085603
-0.21347,0.29801,-0.20493,-0.33036,0.10086,-0.068208,0.04654,0.011444
-0.1561,-0.21958,-0.13474,-0.30777,0.048066,-0.0032044,0.0056458,0.023041
-0.12345,-0.10422,-0.050813,-0.1677,-0.084993,0.12253,0.28458,0.19181
-0.0022889,-0.36606,0.040131,0.089876,-0.11521,0.018769,0.18143,0.16037
0.065156,-0.29496,-0.041962,-0.019074,-0.092927,0.020294,0.20188,0.016022
0.18143,0.093538,-0.090486,-0.27756,-0.059052,0.062409,0.47959,0.014191
0.13657,0.0013733,0.13535,-0.068208,0.045319,0.020294,0.15396,-0.046845
0.0010681,-0.11765,-0.075227,-0.17594,0.14725,-0.016022,0.0090028,-0.062104
-0.024262,-0.075532,-0.078584,0.040742,0.11154,-0.082551,-0.88945,-0.053254
-0.049897,0.14206,-0.10483,0.44511,0.011139,0.018769,-0.51835,-0.04654
-0.14939,0.14023,-0.067292,0.081636,0.027924,0.018769,0.34318,-0.077058
-0.16068,0.032502,0.12161,-0.51987,0.0038148,-0.030976,-0.26993,-0.046845
0.02121,-0.18784,-0.0086976,-0.10086,-0.069734,0.027008,-0.17716,0.061494
-0.002594,0.021515,-0.074311,-0.16159,0.080415,0.009308,0.23331,0.026703
-0.093538,-0.0035096,-0.043183,0.30838,-0.057832,0.11368,0.24277,0.037995
-0.21073,-0.018769,-0.14328,0.020905,-0.11551,0.078584,0.2977,0.046235
-0.11765,-0.21988,-0.25589,-0.11917,0.018158,0.019379,0.14939,0.12467
-0.08957,0.074617,-0.29221,-0.20493,0.0099184,0.043183,-0.077363,0.096284
0.055695,-0.00015259,0.27329,-0.099031,-0.019684,-0.089265,-0.38437,-0.065156
0.13779,-0.042573,-0.098726,-0.18387,0.18418,-0.14969,-0.3267,-0.11307
-0.22324,-0.088655,-0.059052,-0.28092,0.18936,0.0019837,0.1265,-0.015717
-0.2089,-0.05417,-0.12833,-0.12589,0.03006,-0.0013733,0.10086,0.029145
-0.13016,0.1265,-0.027924,-0.1146,-0.093538,0.05417,0.11063,0.086519
0.14389,-0.065461,-0.073396,-0.41032,-0.13138,0.11337,0.17777,0.11612
0.37461,-0.13596,0.075837,1.1525,-0.066987,0.06424,0.12039,-0.030365
0.2742,0.10239,-0.015717,-0.17899,0.1622,-0.0086976,0.10819,-0.13138
0.083772,0.033722,-0.14878,-0.8806,0.085603,-0.026093,0.013581,-0.096284
0.041657,0.019989,-0.047761,-0.27054,-0.24155,0.11582,-0.02945,-0.026703
-0.070954,-0.070344,-0.10544,-0.048981,-0.084688,0.027008,-0.25345,0.027619
-0.017548,-0.2089,-0.015412,0.17594,-0.0022889,-0.034943,-0.15579,0.036774
0.021515,-0.38376,0.18326,0.25223,0.12253,-0.056001,0.20371,-0.047761
-0.037079,-0.39994,-0.084993,0.07187,0.21073,-0.096284,0.0077821,-0.10422
-0.093538,-0.23392,-0.041047,0.084993,0.080415,-0.030976,-0.010529,-0.024872
-0.21073,0.15274,-0.24765,-0.14694,0.045624,-0.034943,0.10544,0.069123
-0.17227,0.38743,-0.10666,-0.27298,0.022736,-0.0019837,0.047456,0.11307
-0.099641,0.37247,-0.11704,-0.20096,-0.11429,0.11521,0.11307,0.10788
-0.14847,0.050202,-0.11978,-0.16098,-0.11185,0.061189,0.0068666,0.041352
-0.069429,-0.15091,-0.13321,-0.22538,0.020905,-0.07126,-0.23941,0.039826
-0.0383,0.0047303,0.070954,-0.042878,0.026093,0.0062562,-0.086824,0.058442
-0.05539,0.13718,-0.06424,0.17624,-0.051423,0.11337,0.24277,0.044404
-0.12131,0.094148,-0.0080873,-0.11582,-0.015717,0.051423,0.098421,0.031891
0.075532,-0.39628,0.083772,0.051728,-0.039216,0.060273,0.043793,0.075837
0.048371,-0.27481,-0.1088,-0.20157,0.0077821,0.0086976,0.034028,0.057832
0.073701,-0.16678,-0.035554,-0.10086,0.078584,-0.04654,-0.099031,0.029755
0.2562,-0.018769,-0.049897,0.068818,0.0047303,0.019989,-0.068818,-0.059052
0.13596,0.18662,-0.10666,0.051423,0.1088,-0.047456,-0.020905,-0.2565
0.029755,-0.41062,0.026398,-0.13077,0.14206,-0.023651,-0.068818,-0.17227
-0.061799,-0.036774,-0.047761,-0.034943,0.024872,0.02121,-0.012665,-0.077668
-0.1442,0.15976,-0.070649,-0.55833,-0.011139,-0.017548,-0.037079,-0.017548
-0.13779,-0.027924,-0.17288,-0.16281,-0.016938,0.016022,-0.002594,0.094453
-0.099336,0.07126,-0.10422,0.14176,-0.032197,0.033112,0.052338,0.099641
-0.14847,-0.093538,-0.018463,0.065461,0.018158,-0.017548,0.11429,0.051728
-0.07126,-0.094759,-0.078889,0.0032044,-0.0044251,-0.011444,0.098726,0.095979
-0.064851,0.20645,-0.091096,-0.40391,0.018158,-0.014191,0.041962,0.070039
-0.14145,0.30655,-0.085298,-0.21073,-0.018158,0.005951,-0.021515,0.018769
-0.18479,0.093538,-0.044404,0.39078,0.017243,-0.024262,-0.25193,0.062104
-0.07126,-0.16373,-0.036469,-0.13352,-0.08011,0.11398,0.13413,0.21561
0.12222,-0.39475,-0.11521,-0.12924,-0.11826,0.15579,0.22324,0.1442
0.056611,-0.14084,0.077974,0.026703,0.030976,-0.023957,-0.081636,-0.017548
0.059968,0.099641,-0.032502,-0.070954,0.103,-0.077363,-0.08835,-0.15
0.0053407,0.066072,-0.084382,-0.32731,0.083162,-0.01297,-0.010834,-0.13748
-0.010224,0.076448,-0.058137,-0.31144,-0.037079,0.039521,0.024872,-0.034943
-0.11704,0.081941,-0.08835,-0.19425,-0.091096,0.0383,0.027619,0.059358
0.16251,-0.37461,0.075227,0.065461,-0.015412,0.0047303,-0.012665,0.036164
0.17716,-0.46464,0.020905,0.36637,0.0090028,0.013275,0.0056458,0.0050355
-0.19059,0.061799,0.050507,0.16953,0.0053407,0.039521,0.11429,-0.047456
-0.23575,0.037079,-0.18784,-0.15274,0.037385,0.0062562,0.30381,0.053559
-0.03769,0.4033,-0.25193,0.027008,0.04593,0.0044251,0.29282,0.096895
-0.061799,0.43809,-0.020294,0.18112,0.047761,0.0083925,0.20554,-0.016938
0.00045777,-0.19181,-0.13291,-0.26017,0.11307,-0.025177,-0.12802,-0.0083925
0.086213,-0.26474,-0.20371,-0.54063,0.061494,-0.094759,-1.0668,-0.035248
0.068208,-0.30869,-0.015717,0.012665,0.041962,-0.11765,-0.47105,-0.061494
0.17136,-0.36454,0.11215,0.018769,0.079805,-0.035248,0.18509,-0.06302
0.00076295,-0.18967,-0.0383,-0.27329,0.031281,0.010529,0.10483,-0.091402
-0.17502,0.049592,0.0019837,-0.10636,-0.013581,0.024567,0.061799,-0.0795
-0.17472,0.16068,-0.052338,-0.12192,-0.079805,0.13474,0.16403,0.046235
-0.044404,0.045624,-0.040742,-0.055085,-0.086213,0.12467,0.19486,0.085298
0.045014,-0.017853,-0.078584,-0.10513,-0.041352,0.05539,0.094759,0.0206
0.087434,-0.038605,-0.011749,-0.079194,-0.051423,0.052644,0.07187,0.034333
-0.015106,0.021515,-0.018463,0.065461,-0.043793,0.033112,0.096284,0.077668
-0.15579,0.18112,-0.10452,0.086824,0.023346,0.0090028,0.28,0.033722
-0.089265,-0.031891,-0.081331,-0.090791,-0.023346,-0.0074769,0.35904,0.0068666
0.029755,-0.34501,-0.17655,-0.36423,-0.026703,-0.0068666,0.21195,0.082551
-0.033112,0.041962,-0.1387,-0.26535,0.14786,-0.05539,-0.14633,0.00076295
-0.051423,-0.027619,-0.093233,-0.1088,0.095369,-0.07187,-1.2197,-0.046845
-0.016938,0.037079,0.024872,0.009308,-0.026703,-0.045624,-0.65171,0.010529
-0.11337,0.042573,-0.045014,-0.0044251,0.015106,0.0013733,0.52659,0.038911
-0.17014,0.21561,-0.078279,-0.063325,0.029755,-0.021515,0.27756,0.0038148
-0.09781,0.11795,-0.093538,-0.0019837,-0.069123,0.056611,0.28275,0.087434
0.044099,0.1326,-0.066682,-0.014496,-0.083162,0.068208,0.16007,0.14206
0.021515,-0.078584,-0.074006,-0.24308,-0.037079,0.037385,0.052338,0.017243
-0.075532,-0.045319,0.091402,0.53635,-0.035859,0.070649,0.034333,-0.056611
-0.0022889,-0.14572,-0.12161,-0.14969,0.15732,-0.015717,-0.049897,-0.14176
0.14389,-0.70634,0.20768,-0.33219,0.030365,0.036774,-0.047761,-0.10727
0.05539,-0.28244,0.10636,-0.10056,-0.059052,0.011139,0.076753,-0.040742
-0.042878,-0.26017,0.0013733,0.074006,0.17807,-0.052033,0.1677,-0.0096132
-0.13687,0.11063,-0.11704,-0.080415,0.13565,0.01297,0.13016,0.031891
-0.068208,-0.0074769,-0.085298,-0.10391,0.084382,-0.0383,-0.098116,0.067597
-0.0074769,0.27543,-0.2446,-0.18173,-0.016938,-0.05539,-0.30167,0.086519
0.087434,0.13046,-0.15061,-0.17197,-0.067903,-0.0050355,-0.19486,0.041047
0.069734,0.14328,-0.22568,-0.25925,-0.095369,0.1091,0.2501,0.12467
-0.038605,0.17868,-0.066682,-0.10056,-0.073701,0.07126,0.14481,0.10086
-0.16281,0.05417,-0.086213,0.17014,-0.032502,0.052949,-0.0383,-0.011444
-0.19608,0.11856,-0.20127,-0.02945,0.054475,0.010529,0.060578,-0.0047303
-0.17624,-0.12467,0.13748,-0.14298,-0.040436,0.068818,0.16953,0.090486
0.018158,-0.22385,-0.028534,0.071565,-0.081331,0.065461,0.2211,0.076143
0.015717,-0.19059,-0.048981,0.0013733,0.066072,-0.090181,0.040131,-0.043488
0.031281,-0.087434,0.052033,-0.11032,0.16526,-0.15976,-0.43168,-0.051423
0.09781,-0.2269,-0.047761,-0.16251,0.023041,0.029145,-0.23484,0.047761
0.1326,-0.16892,-0.18326,-0.17075,-0.015412,0.024262,0.061494,-0.0065614
0.18173,-0.08896,0.061189,-0.12863,-0.018463,0.028534,0.034943,-0.024567
0.017548,-0.072175,0.0041199,-0.16251,-0.0047303,0.040742,0.10086,-0.15152
-0.018463,-0.19242,0.1149,0.38987,0.039216,-0.0056458,0.065156,-0.12924
-0.13352,0.14328,-0.20798,-0.29435,0.022126,-0.015412,0.0086976,-0.02884
-0.14145,0.17807,-0.065156,-0.14267,-0.021515,0.018158,-0.00015259,-0.002594
-0.16312,0.062715,-0.098116,0.081025,-0.065766,0.04715,0.043183,0.027619
0.077363,-0.30991,-0.048981,-0.21408,0.0068666,-0.020905,0.15488,0.0013733
-0.0068666,0.38163,-0.18906,-0.32944,0.10239,-0.017853,0.26413,-0.072786
-0.069429,0.33555,-0.12161,-0.22812,0.051423,-0.0080873,0.121,-0.020294
-0.073091,-0.1149,-0.078584,0.10239,-0.062104,-0.010834,-0.1442,0.12284
-0.032502,-0.33433,0.025788,0.27604,-0.088045,0.030976,-0.1619,0.14084
-0.056001,-0.40604,-0.070039,0.029145,-0.048676,-0.0096132,0.031281,0.12863
-0.1091,0.17441,-0.0099184,-0.091402,0.044404,-0.047456,-0.12345,0.025177
-0.08896,0.34684,-0.0795,-0.4445,0.103,0.0071717,-0.65751,-0.0083925
0.020294,-0.10849,0.022126,-0.1091,0.0050355,0.035554,-0.17472,-0.0050355
-0.013275,-0.11734,-0.07126,-0.021515,-0.067903,0.021515,0.17929,-0.050813
0.069429,-0.14481,0.0056458,0.29587,-0.067903,0.054475,0.058442,-0.035859
0.053864,-0.10605,-0.12985,0.2266,0.086213,-0.027314,0.10544,-0.028534
0.055085,-0.31144,0.081025,-0.27207,0.27939,-0.093843,-0.0010681,-0.0206
0.037995,-0.19211,-0.0074769,0.096895,0.062104,0.050507,0.1976,0.0090028
0.067292,-0.053864,-0.073396,-0.16709,0.076753,-0.013275,0.00045777,-0.012055
-0.051118,-0.016022,0.057527,-0.38071,0.17319,-0.077058,-0.034638,-0.019074
-0.13779,0.055085,-0.10239,-0.045319,-0.045014,0.049592,0.059358,-0.049592
-0.21744,0.17563,-0.22232,-0.168,-0.11246,0.086519,0.057221,0.0065614
-0.20706,0.23819,-0.19577,-0.20676,-0.14755,0.078279,0.092927,0.12253
-0.092317,0.069429,-0.12039,-0.31144,-0.12833,0.042878,0.067903,0.10575
-0.093233,0.2266,-0.21103,-0.26932,-0.081636,0.0383,0.12436,0.11032
-0.10849,0.10117,-0.048371,-0.032197,-0.081941,0.079194,0.15274,0.095674
0.039216,-0.37308,-0.076753,-0.044709,-0.016327,0.043183,0.043183,0.1091
0.12253,-0.24674,0.060578,-0.0019837,0.02121,0.015106,0.019989,0.11398
0.077668,-0.089876,0.19791,0.1973,0.0206,0.027314,0.055085,-0.0041199
0.0065614,0.12009,-0.069123,-0.16587,0.04715,0.0019837,0.0050355,-0.0010681
-0.15763,-0.16678,-0.049897,0.017548,0.13993,-0.11185,-0.17929,-0.13199
-0.24918,-0.13169,-0.085298,0.20981,0.055085,-0.061189,-0.14878,-0.14633
-0.15427,0.088655,-0.017853,-0.39139,-0.075227,0.077058,0.081331,0.041352
0.27634,-0.24369,0.044099,0.36088,-0.030365,0.10941,0.28824,0.057832
0.49149,-0.30747,-0.060578,0.37583,0.22354,-0.081941,0.061494,-0.10086
0.32273,0.14878,-0.13321,-0.21225,0.15732,-0.095369,-0.19028,-0.18326
-0.024262,0.41367,-0.16556,-0.27726,-0.038605,-0.064546,-0.32212,-0.083467
-0.27298,-0.072786,-0.030671,-0.38529,-0.0074769,-0.062104,-0.20493,-0.024567
-0.023346,-0.71641,-0.038605,-0.21225,-0.098421,0.10788,0.39994,0.07126
-0.049897,-0.17777,-0.1796,0.046845,-0.071565,0.044709,0.3389,0.067597
-0.15549,0.19577,-0.050813,0.12161,0.031586,0.018158,0.07126,0.0068666
-0.23941,0.51469,-0.16739,-0.21012,0.062104,0.00076295,-0.84947,0.019684
-0.16159,0.46036,-0.11826,-0.28305,0.030365,0.029145,-0.33219,0.12772
-0.093538,0.011444,-0.14847,-0.27787,-0.061799,0.066377,0.37064,0.16556
-0.022736,-0.35416,-0.081025,-0.1387,-0.028229,-0.010224,0.078279,0.048066
-0.013581,-0.24155,-0.0074769,-0.20432,-0.034638,0.017243,0.090486,0.012665
0.0016785,-0.21622,0.30686,0.057221,-0.096895,0.08835,0.18753,-0.010529
0.14511,-0.27207,0.061799,0.42893,-0.081636,0.070954,0.14725,0.0041199
0.019684,-0.15396,0.093233,0.10788,0.038911,-0.005951,0.024872,-0.081636
-0.067903,0.059968,-0.14176,-0.32914,0.13413,-0.086519,-0.041962,-0.093843
-0.040742,0.15824,-0.2916,-0.3154,0.13993,-0.019074,0.050202,-0.016327
0.029145,0.21622,-0.025788,0.28031,0.064546,0.11887,0.20645,-0.063325
-0.094453,0.039521,-0.074311,-0.35721,0.037995,-0.005951,0.019379,-0.10025
-0.26505,0.12222,-0.12131,0.0080873,-0.078279,-0.084688,-0.20218,0.02945
0.049287,-0.43748,-0.039216,-0.066987,-0.048981,-0.092317,-0.37827,0.072786
0.056611,-0.2742,0.030671,-0.13535,0.074006,-0.031281,-0.11734,0.015717
-0.1033,0.24918,-0.13535,-0.029145,0.024872,0.02884,0.22293,-0.0032044
-0.10452,-0.0099184,-0.15091,-0.016022,-0.089876,0.042878,0.05539,0.065766
-0.0086976,-0.2266,-0.050813,0.12955,-0.057832,0.10147,0.13657,0.11978
-0.098421,0.17044,-0.14145,-0.37552,0.043183,0.017243,0.11215,0.093843
0.032197,0.20218,-0.088045,-0.54429,0.021515,-0.0050355,-0.0028992,0.039826
0.16556,-0.024567,0.040131,0.16831,-0.053254,0.049287,0.059663,0.049287
0.051728,0.049897,-0.037079,0.076753,-0.036774,0.015412,0.014191,-0.045014
-0.031891,-0.16464,0.10117,-0.075532,-0.0056458,0.027314,0.0035096,0.0041199
0.0041199,-0.27237,0.082551,-0.027314,0.065766,0.0047303,-0.035554,0.0016785
0.048066,-0.16892,-0.10208,0.18509,0.13077,-0.029145,-0.043183,-0.030365
0.0032044,-0.037995,-0.094148,-0.046235,0.08072,0.018158,0.0071717,-0.041352
-0.22171,0.040131,-0.051728,-0.085603,0.019379,0.017853,0.036164,-0.0032044
-0.14176,-0.084688,-0.11917,-0.12161,-0.034943,-0.030976,0.029145,0.043183
0.041962,-0.029755,-0.037079,-0.0044251,-0.023651,-0.02945,0.08957,0.041352
0.06363,0.033722,-0.16312,-0.005951,0.045014,-0.0096132,0.034333,-0.071565
0.024262,-0.10147,-0.15244,-0.17166,0.087434,-0.049287,-0.11795,-0.11978
0.020294,0.05417,0.048676,-0.19821,-0.022126,0.020905,-0.068818,0.024262
-0.012055,0.060273,-0.12467,-0.33036,-0.10178,0.059358,0.0086976,0.12222
-0.15671,0.031891,-0.076448,-0.13321,-0.041657,0.010529,0.074617,0.084077
-0.13809,0.024567,-0.035859,0.2974,0.022736,-0.030976,0.088045,0.11002
-0.11582,0.0038148,-0.10849,-0.018769,0.009308,0.021515,0.035859,0.13046
-0.21225,0.1387,-0.12131,-0.34043,0.0047303,0.062409,0.044404,0.051118
-0.085603,-0.13382,-0.0972,0.039216,-0.085908,0.1207,0.096895,0.08011
0.10636,-0.4036,0.048981,-0.037079,-0.056916,0.084688,0.023346,0.033722
0.20645,-0.29831,0.053864,-0.066682,0.057221,-0.023346,-0.082246,-0.1323
0.2266,-0.041962,0.20981,0.2678,0.035554,-0.056001,-0.043488,-0.14084
0.092012,0.0032044,-0.11307,-0.30716,0.040131,-0.08072,-0.027314,-0.16373
-0.10971,0.29252,-0.14054,-0.52415,0.21164,-0.12589,-0.063325,-0.1796
-0.21561,0.27848,-0.17868,-0.14298,0.066682,0.058137,0.070344,-0.0383
-0.21225,0.11124,-0.070039,-0.07248,-0.039826,0.057527,-0.04593,0.010834
-0.014801,-0.23484,0.041962,0.17014,-0.066072,0.019989,-0.16037,-0.024872
0.016632,-0.26383,-0.051118,0.10086,-0.0074769,0.0044251,-0.041962,-0.099947
0.084077,-0.16037,-0.16861,-0.014496,0.082551,-0.041352,0.11276,0.017243
0.063325,-0.062104,-0.046845,-0.1796,-0.066682,0.082856,0.45487,0.15702
-0.093233,0.20676,-0.15335,-0.19394,-0.048371,0.099031,0.421,0.11063
-0.035248,0.032502,-0.11368,0.042573,-0.052949,0.041352,0.31876,0.15946
-0.04593,-0.16342,-0.033722,-0.12955,0.0077821,-0.0972,-0.57176,0.080415
-0.12863,0.21988,-0.15702,-0.28916,0.052338,-0.10208,-1.1345,-0.020294
-0.15976,0.2153,-0.026398,-0.12436,-0.0206,0.011444,-0.20737,0.072175
-0.035859,-0.33341,0.013275,0.12711,-0.027619,0.020294,-0.041352,0.073396
0.10025,-0.59983,0.23545,0.22538,0.050507,0.024262,0.28214,0.040131
-0.041047,0.016632,-0.17563,-0.14206,0.094759,-0.017243,0.26902,-0.012665
0.067903,-0.069429,-0.02182,-0.14939,0.0206,0.03006,0.20676,-0.00045777
0.085603,-0.16403,0.077668,0.1088,-0.056916,0.082551,0.2208,-0.02121
0.010834,-0.1268,-0.032197,-0.12924,0.060273,0.017853,0.103,-0.083772
-0.014801,0.0206,-0.19272,-0.26535,0.10025,-0.0062562,0.017853,-0.081331
0.010529,-0.010224,-0.12222,-0.013275,-0.076143,-0.029755,-0.12161,-0.10605
-0.04715,0.16983,-0.020905,-0.02121,-0.11124,0.0041199,-0.17105,-0.065766
-0.14755,0.23575,-0.16861,-0.24582,0.083162,-0.0062562,0.00076295,0.022736
-0.1091,-0.063325,-0.023957,-0.18936,0.13199,0.082246,0.37461,0.18967
-0.12375,-0.11887,0.017853,-0.24949,-0.0071717,0.085603,0.22599,0.13596
0.0086976,-0.039826,0.014801,0.11429,-0.091096,-0.051118,-0.2681,0.10422
-0.024567,0.23606,-0.28275,-0.035554,-0.075227,-0.014191,-0.21653,0.090181
0.10758,0.055085,-0.18021,-0.27604,0.024262,0.036469,0.11673,-0.027008
0.056306,-0.030976,0.005951,0.0044251,0.02945,-0.011444,0.002594,-0.031281
-0.0795,-0.08072,0.044099,-0.32761,0.02182,-0.041962,-0.0068666,-0.034638
-0.089876,-0.1387,0.043793,0.16831,-0.0062562,-0.039216,0.07248,-0.027619
-0.078889,-0.3798,0.024872,0.27268,0.083772,-0.041352,0.17533,0.012055
0.013886,-0.43198,0.11734,-0.19333,-0.05539,0.10269,0.41062,0.065766
-0.018158,0.15061,-0.030976,-0.046845,-0.076753,0.083772,0.29374,-0.015412
-0.024262,0.2916,-0.13169,-0.099947,0.1387,-0.063935,0.077363,-0.094453
0.064546,-0.092927,-0.17288,0.11551,0.075227,-0.021515,-0.60533,-0.063325
0.066682,-0.121,-0.060883,0.051423,0.095674,0.0028992,-0.7396,-0.037079
-0.029145,0.16373,-0.15396,0.066987,0.11887,-0.019989,0.16892,-0.012665
0.011139,0.093538,-0.11734,-0.0795,0.029755,-0.024872,0.069429,-0.00076295
0.0013733,-0.25498,-0.036469,-0.22904,-0.048676,0.012665,0.010834,0.0068666
-0.19516,0.036469,-0.15854,-0.29252,-0.077363,-0.0019837,-0.014496,-0.0206
-0.19669,0.21225,-0.17197,-0.26047,-0.12253,0.032502,0.067292,0.053254
-0.20432,0.34257,-0.090486,-0.16098,-0.16098,0.10056,0.19699,0.072175
-0.04654,0.038605,0.045624,-0.1149,-0.059663,0.058442,0.12589,0.035554
0.18723,-0.78447,0.20188,0.096284,0.013581,0.018158,0.028229,0.041962
0.059968,-0.31235,-0.07187,-0.084688,0.096284,-0.00076295,-0.041962,-0.034638
-0.057832,0.10636,-0.10758,-0.24826,0.11215,-0.039826,-0.050507,-0.02884
-0.047761,0.13748,-0.035554,0.16617,-0.052033,0.056611,0.051423,0.055085
-0.029755,0.04654,-0.15152,-0.045319,-0.069429,0.065766,0.11063,0.062409
-0.01236,-0.075532,0.066072,-0.28305,-0.026398,0.005951,0.030365,0.0028992
0.023041,-0.23697,0.19181,-0.19944,0.06424,-0.017548,-0.019074,-0.02121
-0.072786,-0.044404,-0.14572,-0.22812,0.082551,-0.0016785,-0.032502,-0.078889
-0.21927,0.05539,-0.2269,-0.14969,-0.069429,0.043183,0.017548,-0.020294
-0.070954,-0.18967,0.0206,0.33616,-0.049897,0.034333,0.14023,0.089876
0.090181,-0.17899,0.10208,0.49546,0.050202,0.00015259,0.18479,0.043183
0.012665,0.081941,-0.066072,0.081941,0.2031,-0.1088,-0.027314,-0.073396
0.13687,0.068513,-0.10117,-0.23972,0.12253,-0.074311,-0.16861,-0.014801
0.031281,0.26261,-0.19669,-0.26749,0.033722,-0.084077,-0.31815,0.0050355
-0.17899,0.41855,-0.1265,-0.10727,-0.069429,0.010529,-0.13413,0.056611
-0.029755,-0.26963,-0.30869,-0.10727,-0.068513,0.057527,0.09781,0.11307
0.024262,-0.41062,-0.015412,-0.28977,-0.046845,0.0038148,0.015717,0.095369
0.009308,-0.16251,0.018769,-0.16373,0.011444,0.039216,0.049287,0.023651
0.097505,-0.41032,0.0062562,-0.012665,-0.035248,0.095064,0.083467,0.077668
-0.059968,0.028534,-0.075837,-0.15152,0.00045777,0.010529,0.017853,0.025177
-0.015717,-0.033417,0.059052,-0.2858,-0.024872,0.017243,0.02182,-0.0065614
-0.061189,0.26963,-0.0038148,-0.0083925,-0.046845,0.040742,0.040131,-0.0065614
-0.13687,0.29648,-0.1091,0.34379,0.18204,-0.019989,0.014191,-0.056001
-0.12345,0.15152,-0.04654,-0.31266,0.15702,-0.0062562,-0.0035096,-0.04593
-0.057221,-0.034028,0.040436,-0.15305,-0.14267,0.080415,0.050507,-0.066987
0.031891,-0.12558,0.084382,-0.024872,-0.065766,0.072786,0.10605,-0.069123
0.077363,-0.4683,0.049897,0.27054,0.010529,0.069734,0.10086,-0.014191
-0.061799,0.03006,-0.30564,-0.23484,0.08835,-0.065156,-0.096895,-0.0065614
0.002594,-0.0074769,-0.25925,-0.19333,0.033112,-0.059052,-0.13016,-0.011139
0.12314,-0.12375,-0.083467,-0.002594,-0.04593,0.014801,-0.031891,0.058442
0.014801,-0.17777,0.042573,0.099947,0.072175,-0.1146,-0.043488,-0.060883
0.0086976,-0.065766,-0.076753,-0.14969,0.048981,-0.02182,0.074617,-0.069429
-0.13748,0.33524,-0.12741,0.005951,0.0035096,-0.0068666,0.17777,0.0074769
-0.12436,0.19211,-0.039216,-0.24918,-0.074006,0.048676,0.41947,0.14725
-0.2385,-0.025788,-0.047761,-0.42618,0.045014,0.020294,0.35203,0.077974
-0.0053407,-0.20798,-0.18479,-0.066377,-0.022126,0.065766,0.14328,0.16068
-0.031891,-0.14755,0.070039,-0.023651,-0.05539,0.046235,-0.60929,0.049287
-0.16648,-0.062715,0.035859,0.062104,0.016022,-0.027314,-0.92393,-0.052644
-0.10971,-0.073701,0.021515,0.1973,0.047456,0.021515,0.14786,0.10025
0.030976,-0.052338,-0.026398,0.13748,0.10483,-0.0080873,0.19883,0.029755
0.093843,0.10147,-0.09659,-0.14298,0.069429,-0.030365,0.16953,-0.027619
0.18723,-0.0022889,-0.083467,-0.12039,-0.012665,0.02121,0.23148,-0.023346
0.17655,0.025177,-0.0038148,0.0090028,-0.060578,0.045624,0.09781,-0.014801
0.0071717,-0.019989,-0.081941,-0.50675,-0.016327,0.010529,0.00076295,-0.067292
-0.11612,-0.14817,-0.095064,-0.11337,0.020905,-0.039826,-0.26169,-0.070954
-0.14328,0.022431,-0.24918,-0.018463,0.052338,-0.043488,-0.19608,-0.046845
-0.15824,-0.11246,-0.098726,-0.091096,-0.033112,0.081331,0.37613,0.06424
-0.14542,0.24277,-0.1738,-0.15335,-0.049287,0.0383,0.2153,0.087434
-0.14572,0.27054,0.0077821,-0.17929,0.03769,-0.012665,0.036774,0.065461
-0.0090028,-0.34287,-0.061189,-0.29862,-0.08835,0.051728,-0.12131,0.081331
0.0013733,-0.20005,-0.059358,-0.18997,-0.11185,0.032502,-0.083162,0.087434
0.01297,-0.027619,0.049592,0.067597,-0.063325,-0.0022889,-0.19516,0.013275
-0.018769,0.11765,-0.00076295,0.44022,0.0016785,-0.03769,-0.12375,-0.036469
0.041657,-0.15854,0.094453,0.40055,0.084688,-0.083772,-0.042573,-0.11154
0.12833,-0.17411,-0.0038148,-0.39048,0.19669,-0.042878,0.039521,-0.10788
0.067903,0.002594,-0.10544,-0.39048,0.1912,0.083467,0.16892,-0.12253
0.041962,-0.034028,0.044404,-0.042267,-0.042573,0.20035,0.23087,0.016022
0.085298,-0.39841,0.073091,0.10391,-0.0074769,0.028534,0.2504,0.043488
-0.1384,0.23331,-0.17899,-0.041657,0.11368,-0.12284,0.096895,-0.055695
-0.1503,-0.024262,-0.076448,-0.14725,0.046845,-0.005951,0.18082,-0.037385
-0.081331,-0.24338,-0.095064,-0.034638,-0.033722,0.041352,0.35019,0.045319
-0.22538,0.16373,-0.18021,-0.18906,0.0010681,-0.083772,-0.62242,0.020905
-0.059968,0.068513,-0.21317,-0.15335,-0.069734,0.0047303,-0.60472,0.10147
0.17105,-0.24552,0.10452,-0.047456,-0.10544,0.032807,-0.039216,0.13931
0.14389,0.18265,-0.19944,-0.1384,0.023651,-0.15061,-0.31418,0.041047
-0.0972,0.15824,-0.15854,-0.15885,0.0077821,0.031281,0.34226,0.067597
-0.13382,-0.0065614,-0.027924,-0.18112,-0.11398,0.16739,0.32151,0.055085
-0.11246,-0.14389,-0.063935,-0.30961,-0.12955,0.069734,0.094453,0.055695
-0.11215,-0.06424,-0.018463,-0.58732,-0.0028992,0.0206,0.051728,0.019379
-0.081331,0.099336,0.023346,0.36698,0.02884,0.077668,0.10483,0.038911
-0.049897,0.066682,0.23423,0.72129,-0.048981,0.037385,0.056001,-0.0032044
-0.0053407,0.13535,-0.18418,0.023346,-0.023041,-0.0010681,-0.027314,-0.048981
0.24735,-0.71061,-0.022431,-0.15915,0.2388,0.026093,0.06424,-0.039521
0.28061,-0.53361,0.016022,0.39445,0.25742,-0.019684,0.11978,-0.2031
0.00045777,0.11002,0.042573,-0.57664,0.17624,-0.1268,-0.015106,-0.32212
-0.12558,0.27573,-0.087434,0.040742,0.0019837,-0.06363,-0.10697,-0.13474
-0.048676,0.016327,-0.0077821,0.063325,-0.10788,0.019989,-0.091707,0.051118
-0.25101,0.18753,-0.15274,-0.089876,0.11093,-0.12222,-0.2974,0.12467
-0.099336,0.14633,-0.22324,-0.1915,0.032197,-0.050202,-0.19699,0.15457
0.10544,-0.1619,-0.18357,-0.17105,-0.078279,0.1622,0.39506,0.25376
-0.042878,-0.13382,-0.19547,-0.34989,-0.076753,0.10147,0.18235,0.10208
-0.20035,0.092622,-0.053254,-0.27726,-0.12192,0.090791,0.070649,0.11185
-0.1326,-0.065766,0.066072,-0.072175,-0.11246,0.09659,0.16739,0.1442
-0.077974,0.11734,0.0206,-0.11734,-0.0035096,-0.025788,0.0013733,0.045624
-0.097505,0.35477,-0.20798,0.039216,-0.0086976,-0.022126,-0.024262,-0.022736
-0.15274,0.44388,-0.078889,0.06424,0.036164,0.036774,0.12284,-0.019074
0.083772,-0.13962,-0.0065614,0.010834,0.0206,0.055085,0.11887,0.0071717
0.17563,-0.70603,0.13138,-0.091402,-0.00045777,-0.0010681,-0.04593,-0.024872
0.32883,-1.1934,0.13291,0.14237,0.02182,-0.042267,-0.26139,-0.086213
0.20127,-0.17563,0.091096,0.043793,0.13809,-0.1149,-0.38376,-0.16007
-0.04654,0.10636,-0.19028,-0.57053,0.15702,-0.069123,-0.04593,-0.18631
-0.20279,0.22049,-0.0972,-0.35325,-0.021515,0.042573,0.1564,-0.016327
-0.11856,-0.009308,-0.060883,0.10208,-0.082246,0.067597,0.087434,0.099031
0.005951,-0.13413,-0.12772,0.17563,-0.031586,0.053559,0.06363,0.069734
0.0032044,0.20829,-0.12985,-0.13596,0.025788,0.011139,0.036164,0.011139
0.020294,0.27054,-0.13107,-0.32822,0.066072,-0.04654,-0.041352,-0.033417
-0.16861,0.2385,-0.082551,0.327,0.047761,-0.060578,-0.023346,-0.033112
-0.16312,0.09781,-0.21225,-0.044709,-0.035248,0.02884,0.1503,0.07126
-0.20279,0.19333,-0.10147,-0.11673,-0.086213,0.081025,0.11185,0.11551
-0.26871,0.13077,-0.073396,-0.19669,-0.08896,0.030671,-0.11185,0.068208
-0.18936,-0.23758,0.022431,-0.21164,-0.086824,-0.019684,-0.049592,0.097505
0.10452,-0.63676,0.27634,0.069734,0.052949,0.019989,0.17075,0.12375
0.061189,0.02945,-0.15274,-0.15976,0.16007,0.082856,0.18173,0.077363
-0.090181,0.12924,-0.077058,-0.1387,0.10819,0.0090028,0.079194,0.030365
0.078584,0.17655,-0.0065614,-0.073701,-0.0028992,0.014191,0.066377,0.076143
0.066072,0.14847,-0.022126,-0.085603,0.019684,-0.025788,-0.057527,-0.062104
0.32761,-0.43351,-0.0035096,0.19455,0.031281,-0.013275,-0.11704,-0.10452
0.24643,-0.42222,-0.21317,0.022126,0.014191,0.03006,-0.044404,-0.14633
0.017853,-0.13413,-0.044099,-0.18143,0.057221,-0.00015259,-0.041352,-0.19394
-0.083467,-0.21592,0.0080873,-0.168,-0.0010681,0.016938,-0.03769,-0.053559
-0.12833,-0.25772,-0.030671,-0.15183,-0.070649,0.066377,0.099031,0.036164
-0.11063,0.15946,-0.1268,-0.065461,-0.027008,-0.025788,0.19547,0.047456
-0.16892,0.3447,-0.16953,-0.15183,0.054475,-0.084688,0.17563,-0.019684
-0.12406,0.35782,-0.1323,-0.078889,-0.011139,0.12772,0.35843,0.1149
-0.038911,0.055085,-0.048371,0.18173,-0.11429,0.09659,-0.16983,0.14633
0.019989,-0.068208,-0.048981,-0.13962,0.019074,-0.075227,-0.91356,0.00045777
-0.057832,-0.42313,0.023957,0.011749,0.050507,-0.069734,-0.0050355,-0.0062562
-0.039826,0.026093,-0.20798,-0.18906,-0.061189,-0.037995,-0.17288,0.0099184
-0.05478,0.24002,-0.076753,-0.38834,-0.0096132,0.031586,-0.046845,-0.023346
0.0032044,-0.009308,0.12314,0.0068666,0.057832,0.014191,0.26719,0.034333
0.027314,-0.18662,0.12497,0.27024,0.084688,-0.0086976,0.068513,0.049592
0.14145,-0.19547,-0.021515,0.20554,0.07126,0.0065614,0.077363,-0.0028992
-0.011444,0.20371,-0.20432,-0.65476,0.10575,-0.033417,0.028229,-0.036774
-0.1619,0.08011,-0.019989,-0.22995,0.035248,0.019379,0.010834,-0.061494
-0.15091,-0.048981,-0.12558,-0.18692,-0.091402,0.08835,0.09781,0.017853
-0.21073,-0.034028,-0.15732,-0.15732,-0.030671,0.018463,0.046235,0.036164
-0.09781,-0.17655,-0.13504,0.28794,-0.10697,0.045624,0.068513,0.04593
0.040436,0.074617,0.057527,0.21958,-0.088045,0.044099,0.13199,0.079805
0.19242,-0.30442,0.1268,-0.048371,0.066682,0.0013733,0.042878,-0.0056458
0.087739,-0.41245,0.046845,0.21164,0.12589,-0.043183,-0.0056458,-0.094148
0.075227,-0.1503,-0.23026,-0.2211,0.092622,-0.070344,0.0086976,-0.040436
-0.039826,0.19821,-0.19303,-0.51621,0.08835,-0.0086976,0.043793,-0.0074769
-0.014496,0.077363,-0.11063,-0.21836,0.02182,0.064851,0.13901,0.033417
-0.076753,0.040742,-0.060273,0.020905,-0.061799,0.011444,-0.1146,0.018769
-0.054475,-0.026703,-0.093538,0.017853,-0.055085,-0.00015259,-0.14176,0.0068666
-0.070649,0.059663,0.034333,-0.022736,-0.073091,0.11521,0.15946,0.12833
-0.032502,0.024262,0.0065614,-0.16495,0.063325,-0.012055,-0.25772,0.084077
-0.081331,-0.088045,-0.0038148,-0.040436,0.047761,-0.012665,-0.052033,0.005951
-0.065766,-0.044404,-0.038605,0.13413,0.039216,0.052644,0.21561,-0.0074769
-0.027314,0.028229,-0.056916,0.10483,-0.038911,0.048066,0.017548,0.0010681
-0.062104,0.0041199,-0.0053407,-0.17288,0.0206,0.002594,0.023346,-0.00015259
-0.20401,-0.052644,-0.048066,-0.37613,0.019379,0.023346,0.074617,0.033417
-0.062715,-0.21073,-0.090486,-0.22416,-0.020905,-0.023651,0.036164,-0.016632
-0.023346,-0.075532,-0.22843,0.023957,0.051118,-0.075837,0.034333,-0.04593
-0.025788,-0.029755,-0.014191,-0.0028992,0.039826,-0.026398,0.19913,0.015717
-0.0041199,-0.021515,0.048981,-0.0013733,-0.027619,0.029145,0.2266,-0.016938
0.13809,-0.069734,-0.095064,-0.30594,-0.020905,0.029145,0.29282,0.033417
-0.029145,0.26352,-0.16922,-0.15702,-0.045319,-0.0032044,-0.25925,0.022736
-0.090791,0.21775,-0.17288,-0.034333,-0.095369,-0.00076295,-1.0527,-0.010529
0.19547,-0.22751,-0.051118,-0.11337,-0.048371,0.11002,0.040131,0.16953
0.16312,-0.24338,-0.024872,-0.20096,0.098726,0.016022,0.097505,0.096895
-0.064851,0.019074,-0.061799,0.49149,0.12467,-0.098421,-0.14206,-0.092927
-0.051118,-0.14969,-0.016632,-0.25101,0.025788,-0.030365,0.018158,-0.083162
0.037995,-0.15488,0.26505,-0.14176,-0.091402,0.090791,0.25498,-0.030671
0.070649,-0.11185,-0.08835,-0.0090028,0.045319,0.02884,0.23178,-0.066072
-0.17319,0.094453,-0.078584,-0.084993,0.083162,-0.030365,0.077974,-0.085298
-0.13382,0.19425,-0.048981,-0.15579,0.02182,0.00076295,0.103,0.011444
0.028229,-0.21042,-0.063935,-0.12192,-0.036469,0.028229,-0.052033,0.065766
-0.022431,0.092622,-0.10605,-0.11521,-0.041352,0.036469,-0.1268,-0.018769
-0.0096132,-0.041962,-0.10269,0.067292,-0.010529,0.070649,0.11154,0.016938
0.058137,-0.28885,-0.062715,-0.018769,0.092012,0.026703,0.092622,0.031281
-0.039826,-0.21958,-0.066987,0.39231,0.16403,-0.061494,0.047456,-0.033112
-0.20676,0.2501,-0.11246,-0.25162,-0.0032044,-0.0053407,0.16831,0.011444
-0.15488,0.23117,-0.16678,-0.50431,-0.11368,0.03006,0.0028992,0.097505
-0.13931,-0.046235,-0.092622,-0.10483,-0.12314,0.018158,-0.29343,0.15793
-0.078889,-0.050813,-0.095369,0.018463,0.070344,-0.0028992,0.088045,0.12039
-0.061189,-0.1561,-0.0056458,-0.262,0.091707,0.0047303,0.078279,0.069429
-0.081331,-0.11856,0.034333,-0.07248,-0.089265,0.043183,-0.066682,0.040436
-0.043183,-0.05539,-0.022126,-0.028229,-0.057221,0.052644,0.041657,0.013581
0.025788,-0.12833,-0.15152,-0.04715,0.0090028,0.014191,0.049592,-0.013275
0.14267,0.12711,0.062104,-0.023651,0.042267,0.014496,0.019684,-0.049287
0.22141,0.19577,0.040742,0.11185,0.040131,-0.016938,-0.029145,-0.036774
0.081941,0.084077,-0.092622,-0.12802,0.15946,-0.10483,0.066682,-0.14847
-0.092317,0.013581,-0.12985,-0.19486,0.073091,-0.015412,0.053559,-0.15244
-0.085298,-0.081636,-0.046845,0.059052,-0.017243,0.017243,-0.038911,-0.078889
-0.11856,-0.13809,0.017243,0.069429,0.012055,0.051423,-0.059663,-0.014191
-0.091096,-0.21042,-0.18326,-0.23117,0.0206,0.018158,-0.091707,0.040131
-0.12741,-0.045624,-0.053254,-0.42985,-0.041047,-0.00015259,0.0038148,0.071565
-0.0065614,-0.29191,0.094148,0.30106,-0.17014,0.014496,0.017548,0.11856
0.011749,-0.23819,-0.10727,-0.32975,0.016938,-0.043488,0.051423,0.12619
-0.011139,0.16983,-0.25559,-0.20279,0.26474,-0.023957,0.21256,0.076143
-0.033722,0.05417,-0.11643,-0.13962,0.019989,0.11948,0.2031,0.066377
-0.14481,0.076448,-0.044099,0.084077,-0.068513,0.028534,-0.030976,0.057221
-0.035248,0.014191,0.049592,0.2562,-0.089876,-0.012055,-0.1857,0.045624
0.13443,-0.032197,0.093233,0.13169,0.073091,-0.087129,-0.43931,-0.0019837
0.14328,0.20737,-0.1265,-0.21469,0.1619,-0.035554,-0.053254,-0.057832
0.10788,0.11368,-0.070954,-0.29099,-0.070039,0.084382,0.21256,-0.0068666
-0.0071717,-0.17502,-0.027924,-0.15732,-0.13443,0.064851,0.043793,-0.036774
-0.070039,-0.2974,0.0074769,0.047761,-0.04715,0.070954,0.103,-0.041047
-0.083467,-0.1677,0.0044251,0.27268,0.0068666,0.042878,0.19852,-0.058137
-0.12131,0.0206,-0.099641,-0.18906,0.10544,-0.04715,0.17716,-0.10758
-0.020294,-0.24155,-0.072175,-0.25193,0.063325,-0.009308,0.16739,-0.020294
-0.042878,-0.030671,-0.092012,-0.12772,-0.029755,0.035554,0.16892,0.076143
-0.059968,0.034333,-0.086519,0.076753,-0.014801,0.01236,-0.59525,0.0383
-0.069429,0.016327,0.013581,-0.11063,0.0010681,0.013886,-0.62211,0.046845
-0.10758,0.20005,-0.14084,-0.39872,0.11063,-0.015106,0.21592,0.042267
-0.098116,0.014496,-0.21805,-0.32151,-0.017548,0.034943,0.11246,0.090791
-0.18265,0.22934,-0.18936,-0.17777,-0.13809,0.0383,0.044404,0.059663
-0.18692,0.30533,-0.066682,0.14237,-0.087129,-0.0028992,0.036164,0.04715
-0.099336,-0.026398,0.15763,0.18051,-0.028229,0.019989,0.085603,0.063325
0.1384,-0.63584,0.026398,0.18906,0.033112,0.0047303,0.103,0.052338
0.073701,-0.14786,-0.13169,-0.038911,0.062104,-0.028229,0.103,-0.015412
0.097505,-0.17594,0.14878,-0.093538,0.04593,0.0086976,0.065461,-0.0032044
0.078279,-0.01297,0.021515,-0.27787,0.092012,0.027924,-0.020294,-0.033417
0.1387,0.038605,-0.092622,-0.01236,0.030976,0.017243,-0.013581,-0.057832
0.023346,-0.079805,-0.15854,0.048676,-0.037385,-0.0028992,-0.060578,-0.10452
-0.014496,-0.27268,-0.029755,-0.077058,0.0056458,-0.0071717,-0.034943,-0.081331
0.064546,-0.18997,-0.10086,-0.121,0.18143,-0.094759,-0.056916,-0.036774
0.013581,0.1677,-0.11368,-0.062409,0.11154,-0.0068666,-0.014801,-0.017243
-0.0206,0.079805,-0.092012,-0.13169,0.0053407,0.022736,0.04715,-0.068208
-0.11246,-0.13291,0.11551,-0.14267,-0.0041199,0.00045777,0.083467,-0.065156
-0.25467,0.12039,-0.22934,-0.39841,-0.038605,0.016938,0.059358,-0.0074769
-0.13993,0.039521,-0.048066,-0.20798,-0.067292,0.025483,0.08957,0.13779
0.0065614,0.093538,-0.070039,0.002594,-0.12406,0.066987,0.19089,0.19577
0.025788,0.0206,-0.066072,0.11643,-0.085603,0.05417,0.21714,0.10971
0.10086,-0.095369,-0.0083925,0.24979,0.017243,-0.019379,-0.05539,0.07187
-0.009308,-0.22232,-0.034333,0.052033,0.13931,-0.056001,-0.23636,-0.030365
-0.15061,0.039826,-0.27756,-0.26108,0.14908,-0.084382,-0.35782,-0.095064
-0.034333,0.040742,-0.0083925,-0.23331,-0.025483,0.02884,-0.16403,0.021515
-0.057527,0.061189,-0.00015259,-0.20798,-0.062715,0.076753,0.15915,0.016938
-0.061494,0.085298,0.012055,-0.075532,-0.050507,-0.0080873,0.16892,0.07187
0.074311,-0.16373,0.054475,-0.041657,-0.043488,0.04715,0.26535,0.11093
-0.045014,-0.14572,-0.065766,0.059968,-0.025177,0.10575,0.12497,0.027314
-0.06302,-0.12955,0.051728,0.25223,-0.0383,0.051423,-0.10056,0.048981
0.16526,-0.16861,-0.05478,-0.082246,0.0383,0.019989,-0.011444,-0.028534
0.14481,-0.16892,-0.23209,-0.22599,0.092622,0.041047,0.2562,-0.09781
-0.056611,0.0071717,-0.053864,-0.31052,0.14817,-0.077058,-0.10452,-0.15213
-0.16648,0.15,-0.11887,-0.23239,0.084077,-0.15427,-0.37491,-0.085298
-0.13565,0.0795,-0.085908,-0.0028992,-0.091402,-0.043488,-0.37552,0.07248
-0.12436,0.058137,-0.21744,-0.009308,-0.14878,0.13779,0.0065614,0.069429
-0.1207,0.039216,-0.11368,0.0010681,-0.09781,0.11948,0.31907,0.07126
-0.02884,-0.084993,0.13046,0.14145,-0.0053407,0.040131,0.12222,0.052033
-0.052949,-0.027924,-0.010834,-0.025177,0.1387,-0.043793,0.10636,0.0206
-0.083162,0.14633,-0.13107,-0.13779,0.08957,-0.02121,0.24765,0.065461
-0.041962,-0.12802,0.030671,0.19669,-0.11368,0.056611,0.25376,0.10361
-0.0053407,-0.35294,-0.060273,-0.12741,0.038911,-0.041657,0.11093,0.043488
0.0050355,-0.053559,-0.07248,-0.62821,0.15915,-0.011749,-0.74876,-0.0047303
0.091707,0.060273,-0.029755,-0.4448,0.088045,0.077363,-0.46891,-0.024567
0.16281,-0.10636,0.066987,0.49851,0.061494,0.042573,0.31632,-0.081025
0.099031,0.024262,0.035554,-0.0795,-0.0010681,-0.065461,0.020905,-0.068818
-0.002594,-0.06363,-0.02182,-0.16068,-0.048371,-0.17014,-0.14084,-0.067292
-0.034943,-0.17563,-0.052033,-0.051423,0.061189,-0.02121,0.020294,-0.082856
-0.06302,-0.12741,-0.094453,-0.015412,-0.010224,0.1387,0.56321,-0.011444
-0.17319,0.061799,-0.18662,-0.39963,-0.0096132,0.035554,0.38499,0.070649
-0.25986,-0.040436,-0.058442,0.15427,-0.050813,0.054475,0.066072,0.066072
0.033112,-0.1854,-0.1146,0.070039,-0.08072,0.041657,-0.39078,0.086213
0.13657,0.063325,-0.15061,-0.028534,0.0056458,-0.029145,-0.23636,0.049592
-0.037079,0.43351,-0.17014,-0.041352,0.063325,-0.094453,-0.13138,-0.076753
-0.099336,0.1912,-0.15854,-0.1799,0.038911,-0.045319,-0.13169,-0.013581
-0.10208,0.13748,-0.019989,-0.16464,-0.08072,0.070954,0.11795,0.084688
-0.095064,0.066072,0.062409,-0.17563,-0.032502,0.027314,0.036774,-0.016327
-0.020294,-0.20218,0.094453,-0.061494,-0.047456,0.084993,0.17136,0.017548
-0.048981,-0.17288,-0.073091,-0.035248,0.033722,-0.02121,0.019074,0.053254
0.05417,-0.13565,-0.17746,-0.25162,0.041352,0.014496,0.016022,0.029145
0.05539,-0.22049,-0.062409,-0.2034,-0.0010681,0.081636,0.17166,0.08011
0.015106,-0.34836,0.086824,-0.2034,-0.072786,0.037385,0.053864,0.02884
0.053864,-0.39445,0.11673,0.25437,-0.059663,0.028229,0.02945,0.0077821
-0.046845,-0.058442,-0.027619,0.22019,0.16648,-0.0032044,-0.0053407,-0.024262
-0.11215,0.10239,-0.082551,0.10758,0.15579,0.0044251,-0.041352,-0.071565
-0.074922,0.14145,-0.056916,0.005951,0.041657,-0.033112,-0.016938,-0.077668
0.085298,0.15549,-0.092622,-0.078889,0.0047303,-0.0053407,0.16526,-0.027008
-0.13748,0.4033,-0.079194,-0.28855,0.10483,-0.049592,0.21988,-0.049897
-0.2974,-0.15335,-0.121,-0.22202,0.018769,0.00015259,0.15122,-0.041047
-0.13382,-0.02182,-0.2501,-0.10147,-0.0795,0.068513,0.12314,0.10422
0.077363,-0.098726,-0.069429,0.11246,-0.059052,-0.034028,-0.77897,0.049287
0.096284,-0.086824,-0.16098,-0.29374,0.011749,-0.10239,-0.7451,0.016022
0.18296,-0.013886,-0.10697,-0.016632,0.032807,0.0041199,0.2208,0.049287
0.18479,0.13657,-0.072175,-0.15,-0.077363,0.098726,0.22324,0.066072
0.1091,-0.30838,0.26444,-0.34226,-0.13596,0.10575,0.14725,0.05539
-0.050813,-0.11765,-0.02884,0.10391,-0.12741,0.089876,0.1146,0.072786
-0.16281,0.099641,-0.10697,-0.31998,0.053559,-0.051423,0.033112,-0.022126
-0.12253,-0.08072,0.044709,0.056001,0.14633,-0.052033,0.10483,-0.010834
-0.096284,-0.12802,-0.051728,-0.023651,0.1445,-0.013581,0.12894,-0.022431
0.024872,-0.032807,0.055695,0.0028992,0.12161,0.03006,0.091707,-0.038605
0.051118,-0.29099,-0.022736,0.13779,-0.025483,0.083772,0.024872,-0.061799
0.1207,-0.14023,-0.11917,0.077668,-0.024872,0.028229,-0.050507,-0.10391
0.14267,0.057832,-0.17288,0.00076295,-0.032502,-0.0099184,-0.040742,-0.030365
-0.11307,0.21592,-0.1091,0.11307,0.0065614,-0.060578,-0.090791,-0.038605
-0.20401,-0.056306,-0.1091,-0.13107,0.093233,-0.14023,-0.018463,0.02121
-0.21012,-0.031586,-0.040436,-0.45457,0.0016785,-0.019074,0.055695,0.11093
-0.16007,-0.081331,-0.085298,-0.23697,-0.098116,0.059663,-0.020294,0.18021
-0.035248,0.018463,0.0038148,0.3505,-0.04654,0.075227,-0.018769,0.20645
-0.027008,0.15396,-0.018769,-0.34745,0.094759,-0.051728,0.024262,0.08011
-0.075837,0.21012,-0.21164,-0.29648,0.15396,-0.084077,0.11429,0.051728
-0.037079,-0.077974,-0.046845,-0.15305,-0.11154,0.15152,0.18173,0.11002
0.038911,-0.18936,-0.076448,-0.11978,-0.12345,0.095979,0.076753,0.02182
0.015106,-0.22263,0.1326,-0.032197,-0.029755,0.052644,0.10361,-0.025177
0.016938,-0.23758,0.044404,0.15457,0.033417,0.045014,0.02945,0.0032044
0.041962,-0.059968,-0.13565,0.044709,0.063935,-0.017853,-0.070039,-0.065766
0.1326,0.013886,-0.041047,-0.10758,0.084688,-0.065156,-0.10575,-0.1326
0.1088,0.077363,0.061799,-0.0071717,0.009308,-0.014191,-0.12528,-0.1387
-0.039216,0.14603,-0.010834,-0.12284,0.02182,-0.020905,-0.079805,-0.1326
-0.13626,0.10849,-0.024872,-0.09781,0.049287,-0.040131,-0.029145,-0.092317
-0.12619,-0.077974,-0.14115,-0.13382,-0.013581,-0.0019837,-0.023651,-0.025177
-0.12955,-0.21469,-0.19303,-0.12955,-0.046845,0.036774,0.055085,0.0068666
-0.11551,-0.3328,-0.098726,-0.0080873,-0.064546,0.070954,0.053254,0.025788
-0.10819,0.11398,-0.18753,-0.023041,-0.061494,0.076753,0.012055,0.059358
0.030365,0.06363,-0.1088,-0.23209,-0.035248,0.041047,0.070649,0.077974
-0.21561,0.47532,-0.10941,-0.19516,0.02182,-0.0035096,0.14298,0.027619
-0.24369,0.37217,-0.052033,-0.019684,-0.060578,0.081331,0.19883,0.058442
-0.08011,-0.2742,0.11948,-0.13931,-0.12314,0.14145,0.30381,0.19699
0.16434,-0.75669,0.14054,-0.059663,0.083162,-0.026398,0.04654,0.12589
0.26963,-0.22965,-0.22141,0.21714,0.22385,-0.16526,-0.46799,-0.018158
0.31571,-0.092317,-0.13565,-0.1268,0.17105,-0.16922,-0.76402,-0.11002
0.11795,0.089265,-0.014801,-0.15915,0.011444,-0.050507,-0.32822,-0.11643
0.08011,-0.019989,0.15915,-0.098726,-0.06302,0.11582,0.39567,-0.017243
0.072786,-0.31235,0.065766,0.010529,0.026703,0.037995,0.30076,0.029755
-0.081941,-0.12375,-0.11521,-0.033112,0.066377,-0.032197,0.1207,-0.091096
-0.1561,0.091402,-0.036774,-0.02884,-0.012055,0.023346,-0.039216,-0.14237
-0.17624,0.083467,-0.04593,0.18265,-0.040436,-0.015717,-0.13138,-0.099336
-0.061494,0.08011,-0.16281,-0.0062562,0.12497,-0.019684,0.19577,-0.0065614
-0.13474,0.10239,-0.11276,-0.19272,0.14054,-0.012665,0.026703,0.061494
-0.10361,0.051423,-0.15854,-0.13962,-0.077668,0.0053407,-0.13626,0.1387
-0.15854,0.20676,-0.13718,-0.27756,-0.090791,0.020294,0.04654,0.1915
-0.15061,0.0206,0.030976,-0.58427,-0.13107,0.11002,0.40055,0.18784
-0.052033,-0.17685,-0.082551,0.0080873,-0.077974,0.061494,0.3566,0.12802
-0.091096,0.045319,-0.14542,0.17594,0.075227,-0.034943,-0.077363,0.044404
-0.058747,-0.048981,-0.032807,-0.031281,-0.076753,0.026703,-0.89067,0.072786
-0.0047303,-0.035859,-0.028229,0.23148,-0.15671,0.11307,-0.049287,0.046845
-0.037385,-0.051728,-0.013581,0.25864,0.028229,-0.0038148,0.24949,-0.095979
-0.035248,-0.17166,0.042878,-0.11032,0.086213,-0.042267,0.031586,-0.078889
0.14847,-0.22782,-0.018463,-0.64286,0.11002,-0.031586,0.0053407,0.019989
0.2266,-0.078279,-0.034943,0.19547,0.12314,-0.086519,-0.049287,-0.041657
0.094148,-0.11734,-0.0019837,-0.13352,0.12406,-0.047456,0.018769,-0.13993
0.087739,-0.25498,0.02945,0.0090028,0.002594,0.024872,0.035554,-0.12009
-0.039826,-0.11276,-0.0041199,-0.24582,0.027924,0.053254,0.11307,-0.046845
-0.076143,0.14542,-0.26413,0.068208,0.067292,-0.022736,0.067292,-0.037385
-0.13993,0.19516,-0.11215,-0.41215,0.0056458,-0.03769,0.011749,-0.029145
-0.062104,-0.18967,-0.082551,-0.37644,-0.0032044,0.011139,-0.14481,-0.0022889
0.015106,0.07248,-0.1912,0.1033,-0.20706,0.1265,0.033417,0.067292
-0.021515,0.1619,-0.092622,0.24033,-0.070649,0.020294,0.026093,-0.0028992
-0.077363,0.021515,0.014191,0.25376,0.040131,-0.0383,-0.028534,0.048066
-0.14817,0.16922,-0.0068666,-0.059358,0.13504,-0.091707,-0.034333,0.034943
-0.093538,0.044099,-0.002594,-0.16464,0.037079,0.029145,0.16617,0.14115
-0.10422,-0.26261,-0.12619,-0.2092,-0.081331,0.14176,0.32578,0.17288
-0.0068666,-0.28244,-0.14115,-0.16342,-0.083162,0.091707,0.12009,0.074617
-0.020905,-0.068208,-0.020905,-0.30045,-0.009308,0.0044251,-0.13596,-0.0062562
0.046235,0.025483,0.00045777,-0.022736,0.0016785,-0.0013733,-0.12467,-0.035248
0.021515,0.048066,-0.042267,-0.30808,-0.022736,0.0041199,-0.050507,-0.057221
0.057527,-0.11948,0.058137,0.075227,-0.039521,-0.0080873,0.010529,-0.045014
0.077668,-0.18021,0.11917,0.43839,0.035554,-0.047761,0.064546,-0.057832
0.17411,-0.14664,-0.049287,-0.10758,0.25101,-0.013886,0.13443,-0.031586
0.078279,-0.059358,-0.15854,-0.21805,-0.017548,0.13565,0.2388,0.019074
-0.13657,0.07187,-0.16495,-0.22019,-0.060883,0.0053407,0.11856,-0.073396
-0.19089,0.11948,-0.12161,-0.061494,0.0383,-0.046235,-0.040742,0.033417
-0.16434,0.041352,-0.15122,-0.11582,0.063935,-0.036164,-0.21134,0.060273
-0.17288,0.13962,-0.25467,-0.12802,0.040131,0.030671,0.25132,0.072786
-0.15488,0.015106,-0.030365,0.11765,-0.067903,0.0080873,0.13016,0.04715
-0.10636,0.18387,-0.034333,-0.018463,-0.055085,-0.10971,-0.8751,-0.012665
0.075227,-0.078889,0.10544,-0.045014,0.0050355,-0.079805,-0.77348,-0.009308
0.015412,-0.13169,-0.028534,-0.076448,-0.0056458,0.073091,0.29252,-0.049592
-0.0028992,-0.14755,-0.096895,-0.24186,-0.076143,0.086519,0.21744,-0.024262
0.041657,0.055695,-0.065766,-0.37156,-0.099641,0.060273,0.13596,0.062104
-0.068208,0.15457,0.017853,-0.22782,0.1207,0.0013733,0.20096,0.14908
-0.081025,0.040131,0.026398,0.20951,0.13993,-0.0028992,0.19883,0.066377
0.0074769,-0.28428,0.040742,0.29007,-0.068513,0.069734,0.11002,0.035554
0.1384,-0.6331,-0.12741,-0.018769,0.054475,0.010529,-0.053254,0.068208
0.13504,-0.44816,0.076753,-0.072175,0.1387,0.0099184,0.023651,-0.067597
-0.018769,0.1976,-0.13046,-0.30655,0.072175,-0.0099184,0.15915,-0.13474
-0.067292,0.40848,-0.10849,-0.25437,-0.023041,0.02884,0.26963,-0.028229
-0.054475,-0.11185,-0.098116,0.011749,-0.069123,0.011444,0.16098,-0.012055
0.0096132,-0.25376,-0.10147,0.13748,-0.038605,-0.066072,-0.10575,-0.058137
-0.013581,0.015106,-0.15061,-0.15,0.038911,-0.025483,-0.084382,-0.055695
-0.044709,0.033112,-0.085908,-0.3444,0.10025,-0.011749,-0.17411,0.011444
-0.10636,-0.10056,-0.064546,-0.044099,-0.017548,0.041352,-0.22507,0.077363
-0.11795,0.089265,-0.063935,0.062104,-0.061494,0.014801,-0.040742,0.11154
-0.19394,0.10513,-0.041047,0.0065614,-0.082246,-0.028229,-0.36271,0.099031
-0.15152,0.10239,-0.010224,-0.059663,-0.062715,0.076753,-0.0019837,0.076143
-0.066987,0.087129,-0.11337,-0.0047303,-0.021515,0.030671,0.23484,0.06302
-0.020294,0.0047303,-0.036469,-0.020905,0.040131,-0.028229,0.11032,-0.0062562
0.04593,0.16922,-0.062409,-0.45975,0.052338,0.014496,0.21927,0.025177
0.10269,0.065766,0.0074769,-0.091707,0.033417,0.0090028,0.17502,0.0028992
0.10483,-0.24216,0.058747,-0.046235,0.017853,0.073091,0.10544,0.056611
0.056001,-0.28824,-0.11032,-0.0086976,0.035248,0.032807,0.0032044,-0.043488
-0.063325,0.011749,0.030365,-0.0795,-0.086213,0.073091,0.042878,-0.10178
-0.11154,0.022126,0.090181,-0.017243,-0.058747,0.018463,-0.011139,-0.093233
0.014801,-0.50553,0.013886,0.12497,0.13321,-0.083162,-0.078279,-0.095369
0.085908,-0.27665,-0.25223,0.029145,0.22324,-0.094148,-0.099947,-0.11124
-0.19699,0.16648,-0.19425,-0.26139,0.091707,-0.057221,-0.05539,-0.10208
-0.05539,0.12528,-0.16159,-0.09659,0.013581,-0.015412,0.035248,0.014191
-0.057221,-0.10452,-0.18326,0.091402,-0.065461,0.031281,0.090181,0.094453
-0.0086976,0.024262,-0.0056458,-0.018463,-0.0071717,-0.016327,0.0086976,0.074311
0.081636,0.070039,0.010224,-0.087434,-0.017548,-0.033112,-0.25315,0.10239
0.10239,0.21042,-0.12528,-0.15396,-0.010224,-0.037995,-0.23819,0.077363
-0.083467,-0.02884,-0.0062562,-0.24887,-0.056916,0.061494,0.18875,0.14694
-0.13321,-0.13046,0.021515,-0.23087,-0.078889,0.088655,0.11856,0.082856
0.064546,-0.16373,-0.068208,-0.015106,-0.11643,0.10086,0.14237,0.096895
0.039521,0.075532,-0.099031,-0.071565,-0.026703,0.030976,0.12222,-0.0041199
-0.0086976,0.16312,-0.0028992,-0.082246,0.08957,-0.011139,-0.00045777,-0.081636
-0.034943,-0.14267,0.046845,-0.1088,0.070649,-0.0047303,0.023957,-0.0206
-0.0096132,-0.31144,0.12711,0.052033,0.041962,0.027008,0.1622,-0.032502
0.056306,-0.32792,-0.12497,0.011139,0.074006,0.0383,0.11521,-0.10239
-0.028229,-0.099336,-0.13352,-0.21714,0.041657,-0.039216,-0.13443,-0.05478
-0.11398,0.032502,-0.10117,0.2446,0.051728,-0.053254,0.0068666,-0.055695
-0.19242,0.17929,-0.15061,-0.23758,0.035554,0.010834,-0.40696,-0.038911
-0.14481,0.024567,0.0383,-0.26505,-0.075532,0.0071717,-0.65476,-0.013275
-0.034638,0.13321,-0.1857,-0.16068,-0.0383,0.00076295,0.27024,0.041047
-0.10727,0.33219,-0.27268,-0.14847,-0.056916,0.031586,0.059968,0.029755
-0.099947,-0.28855,-0.052338,-0.11887,-0.073701,0.04715,0.095369,0.087739
-0.016327,-0.23758,0.13046,0.13596,-0.032807,0.02884,0.19364,0.10605
0.14298,-0.084688,0.076448,0.18631,-0.0090028,0.020905,0.076753,0.082246
-0.039826,0.062104,-0.13077,-0.23362,0.11246,-0.03769,0.0077821,0.0019837
-0.13535,0.065461,-0.19821,-0.33738,0.043793,-0.0038148,0.036774,0.015106
-0.056001,-0.08835,0.013886,-0.41459,-0.13016,0.11337,0.1561,0.099947
0.069429,0.086213,0.034028,-0.00076295,-0.014801,0.04715,0.08072,0.013275
0.016938,0.23026,0.12894,0.93278,0.14023,-0.054475,-0.0010681,-0.1091
0.041657,0.11978,-0.093233,-0.010224,0.10697,-0.031586,-0.024872,-0.14542
0.068208,-0.24399,-0.029755,-0.53269,-0.0050355,0.032197,-0.00015259,-0.091096
0.085603,-0.34806,-0.073396,0.20432,0.009308,-0.0090028,0.01297,-0.0383
0.017853,-0.14664,-0.1207,-0.15396,0.11307,-0.066072,-0.0047303,0.014801
-0.16037,-0.23575,-0.096284,-0.12039,0.092012,-0.031586,-0.020294,0.0016785
-0.041657,-0.33066,-0.12924,-0.23301,-0.056001,0.02121,0.0032044,0.091707
-0.12802,0.19272,-0.12375,-0.27207,-0.02121,0.023346,0.014801,0.089876
-0.13748,0.20523,-0.13565,-0.17929,-0.10849,0.075837,0.063935,0.055695
0.013581,0.081331,-0.099641,-0.16159,-0.10422,0.032807,0.049592,0.10086
-0.0053407,0.0065614,-0.12345,-0.35172,-0.044404,0.064851,0.031891,0.08835
-0.066682,0.094453,-0.04593,0.1323,-0.095064,0.11673,0.049592,0.08011
-0.0068666,-0.12192,0.095979,0.39872,-0.13931,0.062104,0.066377,0.04715
-0.0041199,-0.19821,-0.0016785,0.17136,0.11978,-0.085908,-0.031891,-0.04593
0.013886,-0.11276,0.036774,-0.050202,0.3447,-0.19821,-0.083162,-0.090181
-0.02945,0.043793,-0.030365,-0.11185,0.19883,-0.11002,0.073701,-0.079194
-0.013275,-0.037385,-0.034943,-0.18997,0.013886,-0.014801,0.027008,-0.041657
0.01297,-0.04654,-0.078584,-0.081636,-0.069429,0.082246,0.00045777,0.018158
0.097505,-0.023957,-0.1149,-0.15579,-0.038605,0.05417,-0.067597,0.064546
0.013886,0.29038,-0.090486,-0.16373,0.075227,-0.05539,-0.34287,-0.053559
0.08011,-0.028534,0.14694,-0.090486,0.065766,0.073396,0.02945,-0.0795
-0.034943,-0.37278,0.1619,-0.17014,-0.081331,0.062409,0.40055,-0.081025
-0.11612,-0.25803,-0.25132,-0.17685,-0.043488,-0.010834,0.16739,-0.061189
-0.06363,0.043793,-0.27787,-0.082551,0.033722,-0.027314,0.15946,0.014801
-0.094148,0.087129,-0.24704,-0.23148,0.012665,-0.039216,-0.018463,0.02945
-0.063935,-0.29892,-0.055695,-0.17868,-0.05478,-0.049287,-0.916,0.0068666
-0.023651,0.10422,-0.061799,-0.14847,-0.10483,0.0383,-0.17441,0.090486
-0.033417,0.32609,-0.11734,0.071565,-0.078889,0.08072,0.34012,0.079194
-0.084993,0.095979,-0.01236,0.39261,-0.072786,0.07248,0.13474,0.079805
0.04593,-0.13779,0.017548,0.16617,0.041352,-0.0028992,0.16129,0.075837
0.12284,0.033722,0.042267,-0.44846,0.16922,-0.019684,0.14298,0.061494
0.10147,-0.014191,-0.069123,-0.5507,0.080415,0.0053407,0.043488,-0.027619
-0.054475,-0.011749,-0.16953,-0.31205,-0.069734,0.084688,-0.24308,-0.094453
-0.18631,0.080415,0.019989,0.40177,-0.13748,0.11337,-0.13413,-0.068208
-0.24186,-0.019989,0.005951,0.63676,-0.018463,0.075227,0.26413,-0.016632
-0.061494,-0.25437,0.18326,-0.010529,0.16495,0.016022,0.32242,0.065461
-0.024567,-0.24949,-0.10025,-0.30838,0.16037,-0.10178,-0.035248,0.03769
0.015106,-0.19028,0.06302,-0.23941,0.04593,-0.047456,-0.24033,0.0099184
-0.14878,0.15793,-0.19791,-0.32547,0.12833,-0.22324,-0.19638,-0.022736
-0.1323,-0.06424,-0.16922,-0.15946,0.024262,-0.069123,-0.14237,0.061494
-0.012055,-0.19547,-0.085298,-0.11521,-0.12863,0.22568,0.30289,0.18845
-0.075532,0.0086976,0.020294,0.05417,-0.0056458,0.017243,0.15671,0.049592
-0.065156,0.033112,-0.1207,0.00076295,-0.049897,-0.027314,-0.0053407,0.021515
-0.082246,0.037995,-0.27848,0.051728,-0.13352,0.044099,0.11795,0.11002
-0.10544,0.077974,-0.10452,-0.074922,0.0050355,0.039216,0.094148,0.11307
-0.02945,0.13382,-0.024872,-0.50462,0.12558,0.013886,0.0050355,0.085908
-0.065461,0.093843,0.14725,-0.099031,-0.041047,0.013275,-0.0044251,0.017548
0.012665,-0.049897,-0.074922,0.0065614,-0.11093,0.038605,0.044404,0.036774
0.099641,-0.28946,0.059052,-0.078279,-0.0056458,0.00045777,0.037995,0.039521
0.13931,-0.45212,0.14633,0.18997,0.0010681,0.010224,0.052033,-0.081331
0.1091,-0.12955,-0.092317,0.026093,0.052949,0.053559,0.038911,-0.14237
0.0080873,0.17807,-0.13382,-0.066377,0.11612,0.009308,-0.033417,-0.13779
0.098116,-0.16342,-0.095979,-0.077363,0.10605,-0.040436,-0.0083925,-0.1207
0.11154,-0.15061,-0.081941,-0.055695,0.044099,-0.013581,0.021515,-0.13748
0.0077821,0.070649,-0.03769,0.040742,0.018158,0.0010681,-0.092012,-0.13016
-0.066682,0.13443,-0.19883,-0.20157,0.030365,-0.0062562,-0.12772,-0.074922
-0.22873,0.073701,-0.049897,-0.50767,0.10452,-0.061494,-0.08072,-0.035248
-0.35233,0.21164,-0.11337,-0.10941,-0.072175,0.051728,0.1146,0.049897
-0.16617,0.10727,-0.002594,0.1442,-0.13779,0.081636,0.18936,0.14389
0.088045,0.063935,-0.079194,0.26535,-0.024567,-0.0050355,0.23331,0.17258
0.1677,0.11734,-0.2916,-0.25284,0.041352,-0.0096132,0.15335,0.077974
0.10544,-0.25742,-0.01297,-0.18082,0.025483,-0.041352,-0.103,-0.029145
0.14847,-0.17594,-0.075837,-0.13199,0.039216,-0.10391,-0.36698,0.031281
-0.049897,-0.12955,-0.059968,-0.1384,-0.037079,0.019989,-0.32761,0.01297
-0.21561,-0.18662,0.10819,-0.15549,-0.076143,0.10483,0.16068,-0.076143
0.0096132,-0.27481,-0.084688,-0.12375,-0.067903,0.077058,0.28428,0.12833
-0.032807,0.33127,-0.036164,-0.13321,-0.045014,0.081636,0.27237,0.092012
-0.060883,-0.30961,0.23087,0.11887,-0.042573,0.084382,0.4094,-0.014191
0.027924,-0.52873,-0.026398,0.18051,0.078279,-0.0050355,0.0053407,-0.025788
0.039216,0.0062562,-0.10758,0.25223,0.14633,-0.08011,-1.0274,-0.086824
0.082246,-0.064851,-0.10147,-0.061799,0.13443,-0.1149,-0.54429,-0.087129
-0.02884,0.1323,-0.16495,-0.5211,0.076143,-0.048066,-0.027008,-0.045624
-0.22538,0.1503,-0.07126,-0.50858,-0.083772,0.078279,0.27451,0.027314
0.0065614,-0.10788,-0.085298,0.09781,-0.10727,0.097505,0.3328,0.16617
-0.030365,0.10208,-0.13321,0.28183,0.042878,0.0083925,0.16281,0.0795
-0.1561,0.28214,-0.042878,-0.23911,0.13291,-0.037079,0.031891,-0.040436
-0.15946,0.15763,-0.088655,-0.46067,-0.066072,0.056306,0.080415,0.029145
-0.15488,0.042267,-0.14328,0.067292,-0.0071717,-0.0050355,0.030976,-0.014801
-0.10544,0.02182,-0.1033,0.29496,0.0099184,0.027314,0.039521,-0.002594
-0.039826,0.0047303,-0.0068666,0.0050355,-0.08072,0.046845,0.08072,0.076143
0.10086,-0.054475,-0.081941,-0.1268,0.081636,-0.011139,-0.039521,0.066377
0.20096,-0.096284,-0.080415,-0.22599,0.023957,0.055695,0.22721,0.10422
0.025177,-0.18875,0.043793,-0.14115,0.013886,0.017853,0.2327,-0.009308
0.009308,-0.15244,0.02884,-0.092927,0.01297,-0.0074769,0.18479,0.011444
0.010834,-0.31785,0.1799,-0.035248,-0.029145,-0.012665,0.092317,0.0096132
-0.023041,-0.086519,-0.06424,-0.056306,0.066377,-0.061494,-0.91997,-0.11734
0.17014,-0.28397,0.13748,0.12558,0.027314,0.011139,-0.36606,-0.026398
0.015412,0.095369,-0.19944,0.033417,0.057527,-0.015106,0.22324,-0.099336
-0.049592,0.13626,-0.13779,0.037385,0.088045,-0.045624,0.016938,-0.14389
-0.19333,0.21378,-0.1149,-0.24552,0.013886,-0.047761,0.04654,-0.10391
-0.26688,0.026703,-0.12924,-0.23239,-0.032502,-0.0099184,0.059663,0.029145
-0.25437,0.037385,-0.11246,-0.19699,-0.065156,0.099031,0.16434,0.23758
-0.13748,-0.22477,-0.22232,-0.14939,-0.085298,0.079194,0.099031,0.2208
0.0016785,-0.056916,-0.17258,-0.25528,-0.067292,0.0032044,0.09659,0.11154
-0.030365,-0.042267,-0.037079,-0.31785,0.10666,-0.0016785,0.057221,0.057221
-0.0035096,-0.11643,0.070649,0.50553,0.02121,0.0795,0.051728,0.066377
0.21714,-0.12558,0.13931,0.0080873,0.012055,-0.030976,-0.019684,-0.04593
0.30198,0.097505,-0.10117,-0.21836,0.013275,-0.04654,-0.057221,-0.068208
0.10086,0.098116,-0.19669,-0.38041,0.0028992,0.036164,0.12711,-0.021515
-0.051118,-0.03006,0.076753,0.03006,-0.083162,0.10513,0.19394,-0.052033
-0.052949,-0.2269,0.092622,0.44297,-0.067597,0.053559,0.0032044,-0.069123
-0.08896,-0.021515,-0.015717,-0.47379,0.076448,-0.005951,-0.069429,-0.020294
-0.031281,0.15763,-0.13931,-0.12589,0.037385,0.039521,-0.22293,-0.018769
-0.062104,0.13321,-0.14145,0.083162,0.088655,-0.010834,-0.13321,-0.063935
-0.10605,-0.21683,-0.023041,0.041047,0.094759,-0.030976,0.091402,-0.051118
-0.17227,0.032502,0.034333,-0.20432,0.076143,-0.044404,0.027008,-0.0035096
0.0016785,-0.21042,-0.068818,-0.16922,0.0074769,0.0038148,0.076448,0.075227
0.13382,-0.096284,-0.2089,-0.058747,-0.095674,0.052338,0.095369,0.075837
0.075227,-0.29404,-0.081941,-0.033417,-0.026398,-0.0080873,-0.0019837,-0.02121
-0.10513,0.13993,-0.052949,0.20554,-0.02121,-0.0028992,-0.013581,-0.0074769
-0.20279,0.15457,-0.18082,-0.33646,0.0010681,-0.012665,0.065766,0.031891
-0.08072,-0.084688,0.034333,-0.17258,0.013886,-0.01297,0.15122,0.093538
-0.1146,0.01236,-0.076448,-0.022126,-0.037079,0.037079,0.063935,0.076143
-0.06363,-0.052033,-0.037079,0.077974,0.048981,-0.0053407,-0.12192,0.02884
-0.0022889,0.063325,-0.015412,-0.084993,0.024872,-0.039826,-0.2974,0.091707
0.066072,0.041657,0.0038148,-0.0795,-0.030671,0.0013733,-0.12436,0.071565
0.057832,-0.11551,-0.0383,-0.41672,-0.1091,0.10452,0.15396,-0.0035096
0.024872,-0.14206,-0.0053407,-0.14847,-0.011444,0.031281,0.10636,-0.0074769
-0.0090028,-0.32578,-0.038911,0.18418,0.077668,0.014496,0.058137,-0.016938
-0.0041199,-0.21653,-0.061799,0.036774,0.10208,-0.0035096,-0.051728,-0.084993
-0.028229,0.11032,-0.14725,-0.2797,0.081636,-0.073091,-0.11368,-0.12711
0.048981,0.10666,-0.13077,-0.18601,-0.050813,-0.0071717,-0.029145,-0.032807
0.016632,-0.024262,0.019379,0.11917,-0.053254,-0.0035096,-0.11521,-0.053559
-0.084077,0.049897,0.031891,0.14969,0.090486,0.038605,0.082551,-0.068208
-0.20035,0.27451,-0.18112,0.077668,0.039826,0.04654,0.24125,-0.076753
-0.13382,0.022736,-0.21103,-0.3621,-0.016938,-0.04654,0.19028,0.050507
-0.11429,-0.13077,-0.14939,-0.14939,-0.014496,-0.037995,0.23789,0.20462
-0.073396,-0.31144,0.18357,0.066072,-0.053559,0.055085,0.0047303,0.22354
-0.056001,-0.025483,-0.0074769,-0.057221,0.14847,0.022126,0.051423,0.19974
0.031586,0.21622,-0.096895,-0.1384,0.15091,-0.020905,0.078279,0.15549
0.064546,0.018158,-0.040131,-0.037385,-0.065156,0.050507,-0.094148,0.035248
0.1323,0.077668,-0.016632,-0.049592,-0.0086976,0.060578,-0.18082,-0.11978
0.082246,0.048371,-0.052949,-0.15274,0.023651,0.025177,-0.18814,-0.12528
-0.04715,-0.37186,0.043793,-0.06363,0.0383,-0.025177,0.079805,-0.11154
-0.095369,-0.31266,-0.10971,-0.060273,-0.014496,-0.015717,-0.041962,0.0053407
-0.049592,0.012055,0.014191,-0.033722,-0.012665,-0.057527,-0.27207,0.048371
-0.048981,0.070649,-0.11368,-0.12253,0.0053407,-0.009308,0.084382,-0.00015259
-0.0086976,0.027314,-0.064851,-0.15061,-0.012055,0.0972,0.16312,-0.046845
-0.017243,0.089876,-0.036469,-0.21408,-0.025788,0.058442,-0.013275,-0.048676
-0.168,-0.0041199,-0.072786,-0.098726,-0.014801,0.016632,0.026093,-0.059052
-0.2916,0.075227,-0.1387,-0.053559,-0.032502,0.030976,0.15946,-0.035859
-0.23545,0.086519,-0.10697,-0.084382,-0.0383,0.019074,0.16129,0.056001
0.11398,-0.15824,-0.10697,0.085603,-0.018158,-0.005951,0.11154,0.10636
0.18967,-0.092317,-0.20371,-0.090791,-0.0047303,-0.00015259,-0.19272,0.040131
0.10147,-0.18997,-0.11124,-0.17929,0.072175,-0.037385,-0.30625,0.0056458
0.075227,0.12222,-0.045014,-0.20676,0.037079,0.026398,0.16709,0.13413
0.12253,-0.056001,0.058747,0.04654,-0.089876,0.080415,0.14664,0.076143
-0.03769,0.00015259,0.042573,0.061494,-0.027619,0.025483,0.039521,-0.085908
0.0090028,-0.309,0.0047303,-0.044404,0.10208,-0.034333,-0.036774,-0.072786
-0.049897,0.083162,-0.081025,-0.15152,0.043183,0.027924,0.045319,0.011444
0.04593,-0.046235,-0.00076295,-0.14542,0.0096132,0.010834,0.095369,0.04593
0.077668,-0.40848,0.11276,0.19394,0.059052,0.0032044,0.0013733,-0.0028992
-0.059052,-0.085603,0.012665,0.077668,0.10941,0.013275,0.17655,-0.065461
-0.061494,-0.010834,-0.103,-0.20676,0.066377,-0.034943,0.049287,-0.042878
-0.14572,0.087434,-0.13901,-0.26108,0.05417,-0.074006,-0.13199,-0.0068666
-0.18082,0.052033,-0.028534,0.0074769,-0.043793,0.049287,0.13931,0.018158
-0.18845,0.00045777,-0.074311,0.25071,-0.12589,0.056306,-0.74784,0.035248
-0.1146,0.042267,-0.29404,-0.0062562,-0.08896,0.031281,-0.24491,0.099641
0.052033,-0.17472,-0.21744,-0.29557,-0.024262,-0.0047303,0.3209,0.11032
-0.21103,0.057832,0.013275,-0.2504,0.11154,-0.092317,-0.026703,-0.02945
0.0047303,0.14267,-0.058137,-0.26841,0.10941,0.00076295,0.045624,0.0077821
0.048066,0.38468,-0.07248,-0.35203,-0.053254,0.10483,0.21714,0.084382
0.014801,0.16739,-0.059968,-0.041047,-0.074006,0.02945,0.0795,-0.027314
0.14328,-0.28092,0.052338,0.015106,-0.056916,0.051423,0.059052,0.020905
0.11063,-0.42496,-0.045014,-0.35172,-0.013275,0.013275,0.11795,-0.014801
0.041047,-0.20768,-0.020905,0.14694,0.074311,-0.050202,0.14237,-0.098116
0.056001,-0.103,0.020294,0.039826,-0.053559,0.051423,0.04593,-0.05478
-0.035859,0.14542,-0.091096,0.37583,0.055085,-0.054475,-0.18326,-0.077363
-0.067903,0.20371,-0.11612,-0.37736,0.17258,-0.065766,-0.36973,-0.014191
-0.078889,0.18479,-0.1088,-0.51225,-0.012055,0.13779,0.019989,0.057221
-0.10239,-0.19394,0.029755,0.20401,-0.090181,0.121,0.29648,0.045624
-0.15183,-0.17807,0.13107,0.02182,-0.056001,0.0053407,0.061189,-0.013275
-0.13962,0.046235,-0.11429,-0.085603,0.087739,-0.052338,0.089265,0.048981
-0.038911,-0.48386,-0.096284,0.11917,0.11612,-0.0071717,0.24216,0.089265
0.15,-0.28244,-0.023041,-0.092317,0.030976,0.0022889,0.28428,0.011444
0.13382,0.09781,-0.11551,0.039216,0.030976,0.0013733,0.23728,-0.024262
-0.0053407,0.019684,-0.15244,-0.014191,0.05539,-0.031586,-0.44297,-0.083772
-0.11612,0.16648,-0.072786,-0.26535,0.011444,-0.087129,-1.1299,0.0383
-0.067597,-0.015717,-0.086824,-0.08957,-0.040436,-0.016022,-0.070649,0.13382
-0.11337,0.11429,-0.082246,0.024567,-0.034943,0.040131,0.3505,0.059663
0.0074769,-0.038605,-0.036774,0.099336,-0.018463,0.02945,0.27329,0.06424
0.0065614,-0.087739,-0.063325,-0.27024,0.069429,-0.031891,0.10666,0.013581
0.01297,0.0795,0.0074769,-0.27573,0.040131,0.0044251,0.066072,-0.013581
-0.037385,-0.078279,0.033417,-0.12924,-0.091402,0.064851,0.092012,-0.01236
-0.0068666,-0.27878,0.073701,0.12619,-0.090791,0.046845,0.096284,-0.0080873
0.031586,-0.35203,0.051118,0.29496,-0.0028992,0.0090028,0.08072,-0.013581
-0.081025,0.16037,-0.16526,-0.099947,0.16831,-0.073396,-0.014801,-0.12711
-0.056001,0.15244,-0.15152,-0.2678,0.10758,-0.048066,-0.044709,-0.08896
0.063325,-0.11612,-0.062715,-0.17105,-0.041047,0.061494,-0.067903,0.056001
-0.064851,-0.01236,-0.065156,-0.20279,0.017243,0.066377,-0.00045777,0.061189
-0.20432,0.16587,-0.05478,0.033112,-0.071565,0.070344,0.057527,0.037995
-0.16068,0.19364,-0.19791,-0.072175,-0.070954,0.048066,0.053559,0.093538
-0.079194,0.060273,-0.18326,-0.37827,0.043793,-0.044099,-0.0028992,0.083772
0.099031,-0.31174,-0.11673,-0.25589,-0.0206,-0.019989,0.016022,0.087434
0.15396,-0.0795,-0.070954,0.011444,-0.084993,0.046235,0.044099,0.063935
-0.024567,0.10361,-0.01236,0.069429,-0.0086976,0.0041199,-0.027008,-0.020905
-0.15244,0.15183,-0.031586,0.040131,0.023957,0.0077821,-0.058137,-0.029145
-0.16098,-0.058747,-0.052033,-0.1915,-0.040742,0.084382,0.015106,0.0206
0.041962,-0.45182,0.17868,-0.15122,-0.06363,0.074922,0.052033,0.041352
0.019074,-0.0383,-0.23728,-0.22293,-0.0047303,0.027008,0.043183,-0.022431
0.097505,0.070039,0.081025,0.27695,0.045624,0.0044251,0.0032044,-0.10697
0.086824,0.040131,0.066377,0.88182,0.032197,-0.044099,0.10147,-0.12985
-0.1091,0.11612,0.046235,-0.66453,0.095674,-0.11429,0.121,-0.10208
0.020905,-0.31022,0.08011,-0.44999,0.22049,0.031586,0.016022,0.0053407
-0.17502,-0.17411,-0.14389,-0.027619,0.11582,0.070344,-0.058747,0.0077821
-0.21317,-0.25772,-0.13962,0.092927,0.036164,-0.06363,-0.18082,0.085603
0.15427,-0.17472,-0.14542,-0.035248,0.032807,-0.027619,-0.057832,0.17075
0.16526,0.17624,-0.24796,-0.1796,0.015717,-0.0038148,0.09781,0.056611
-0.038605,0.19577,-0.052949,-0.051118,-0.015106,-0.025788,-0.067903,-0.042573
-0.053559,0.13321,-0.13169,-0.13535,0.040436,-0.032807,-0.1033,-0.059663
0.095674,0.15274,-0.075837,-0.20829,-0.018158,0.01297,-0.0035096,-0.051728
-0.049592,0.050507,-0.05417,-0.17014,-0.10391,0.034943,0.016022,-0.0083925
-0.25437,-0.0028992,-0.059968,-0.094759,-0.10422,0.070649,0.1091,0.090181
-0.064546,-0.31449,-0.035859,-0.087129,-0.05539,0.045319,0.12467,0.16678
0.056306,-0.39841,-0.025483,-0.0096132,-0.022431,0.014496,0.14054,0.17868
-0.045319,-0.14267,0.082856,-0.0019837,-0.016632,0.078584,0.085908,0.086519
-0.035859,0.061799,-0.07126,0.045319,-0.037079,0.054475,-0.067903,0.016022
-0.05539,0.058137,0.024872,-0.019074,-0.049592,0.016022,-0.069429,-0.062715
-0.063935,0.033112,-0.058442,-0.21103,0.018158,0.0065614,-0.045014,-0.08835
0.07126,-0.041352,-0.028229,-0.0795,0.12558,0.013275,0.0090028,0.0053407
-0.044404,0.2501,-0.1735,-0.10056,0.13657,-0.0047303,0.035554,-0.095369
-0.087434,0.18723,-0.098421,-0.2797,0.012665,0.0028992,0.067597,-0.10849
0.045624,-0.33707,-0.039826,0.0019837,-0.081025,0.049287,0.025483,0.02182
-0.018463,-0.21164,0.16464,-0.07248,0.023346,-0.029145,-0.077058,-0.039826
-0.02945,-0.18875,0.14633,0.13443,0.10666,-0.074617,0.024872,-0.024872
-0.051423,0.19791,-0.3331,0.062715,0.11215,-0.089876,0.019684,0.02121
-0.029755,0.23636,-0.33463,-0.25345,0.08835,-0.059968,-0.00045777,0.061799
-0.07187,-0.1735,-0.1207,-0.15763,-0.066682,0.03006,0.005951,0.12436
0.00045777,-0.032197,-0.090486,-0.0795,-0.11429,0.050202,-0.20279,0.103
0.0010681,-0.059968,-0.0383,-0.21561,-0.11398,0.12161,0.22721,0.085298
-0.053559,-0.042878,0.0077821,-0.21378,-0.093233,0.11124,0.64988,0.054475
-0.061799,-0.12009,-0.014801,-0.15763,-0.055695,0.062104,0.27329,-0.022126
-0.051118,-0.12467,0.14511,-0.12375,-0.04715,0.037385,-0.645,-0.075837
0.025177,-0.00015259,-0.038911,0.18906,-0.019074,-0.037079,-0.2855,-0.027008
0.073701,-0.25467,0.081941,0.42222,0.083467,-0.031281,-0.4506,-0.11978
0.015106,-0.0086976,-0.11215,0.041657,0.23819,-0.070344,-0.33768,-0.091707
0.045624,0.049592,-0.056611,0.23392,0.23514,-0.099947,0.13413,-0.011139
0.042878,-0.21866,0.055695,-0.009308,0.11673,-0.035248,0.14054,0.0038148
-0.051118,-0.15213,-0.16953,-0.29587,0.079805,-0.046235,-0.084077,0.0074769
-0.049897,0.24063,-0.21683,-0.31968,-0.0010681,0.035248,0.21286,0.052949
-0.074617,0.31205,-0.090181,-0.20554,-0.096895,0.07248,0.33616,-0.01297
-0.10056,0.23331,-0.11978,-0.17685,-0.049592,0.013275,0.36667,0.021515
-0.11704,-0.21103,0.02884,-0.024262,-0.069429,0.044404,0.40543,0.075532
-0.11826,-0.21683,-0.13046,0.041047,-0.072175,0.018158,-0.053254,0.09781
-0.23178,0.14878,-0.11704,-0.087739,0.023957,-0.10758,-1.0491,0.069123
-0.1799,-0.047761,-0.048066,-0.15915,-0.059358,0.033417,-0.21408,0.13657
0.18326,-0.49607,-0.048981,-0.41978,-0.15,0.1033,0.14603,0.13993
0.083772,0.067292,-0.075837,-0.24369,0.030365,0.038911,0.11093,-0.020294
-0.0028992,0.09781,-0.011749,-0.079194,0.08957,0.076753,0.24521,-0.077668
0.10269,0.02945,-0.0383,0.040742,-0.060883,0.076448,0.15488,-0.020905
0.11002,-0.38407,0.17716,0.13504,-0.013581,0.0071717,0.052033,-0.095979
0.049592,-0.037385,-0.031586,0.20768,0.067597,-0.013886,-0.0080873,-0.15427
0.0028992,0.19913,-0.11765,-0.11856,0.085298,-0.0383,0.0041199,-0.081331
-0.054475,0.033417,-0.16373,-0.66972,0.038911,-0.023041,0.059358,-0.031891
-0.1265,-0.11734,-0.0206,0.56046,0.039216,-0.025177,0.053559,0.037995
-0.07126,-0.093538,0.0062562,-0.075837,0.087739,-0.012055,0.095369,0.11185
-0.031586,-0.02884,-0.052338,-0.15793,0.11582,-0.015106,0.036774,0.10452
-0.098421,0.093233,-0.19516,-0.4918,0.0096132,0.011139,-0.028534,0.041657
-0.11948,0.082246,-0.15122,0.0035096,-0.087129,0.0044251,-0.0068666,0.030365
-0.12436,0.21622,-0.15396,0.35233,-0.057832,-0.0050355,-0.027008,0.02945
-0.077974,-0.16159,0.04654,-0.20005,-0.051423,0.047456,0.030976,0.098726
-0.018463,-0.38651,0.103,-0.32914,-0.053864,0.084993,0.065766,0.11429
0.06302,-0.20432,0.015717,-0.0050355,-0.030365,0.032197,0.036774,0.057221
0.061189,0.12375,-0.13748,0.057832,0.014191,-0.017243,-0.019684,-0.045319
0.07187,0.15518,-0.11948,0.015412,0.057832,-0.0041199,-0.032502,-0.068818
0.12497,-0.1564,-0.103,-0.023651,0.063325,0.042573,0.013581,-0.044709
0.0071717,-0.009308,-0.00076295,0.0013733,0.055695,0.025483,-0.014496,-0.10544
-0.06363,0.026398,-0.044099,-0.39567,0.0099184,-0.031891,-0.096895,-0.13352
0.034943,-0.22782,-0.0065614,-0.0062562,-0.043183,0.0044251,0.0071717,-0.019379
0.028229,-0.28244,-0.068818,0.033722,0.04593,-0.022736,-0.009308,-0.034638
0.012055,0.024567,-0.061189,-0.017548,0.14603,-0.063325,-0.041352,-0.059358
-0.11124,0.40421,-0.059968,-0.072786,-0.0010681,0.01297,0.058442,0.02121
-0.16098,0.33433,-0.20523,-0.22812,-0.045624,0.026703,0.0065614,0.027314
-0.25101,-0.10849,0.010224,-0.24369,-0.068818,-0.00076295,-0.024872,0.05417
-0.18631,-0.27543,0.17899,-0.070954,-0.025788,-0.04593,-0.093233,0.010834
-0.0086976,-0.18967,-0.078584,0.19638,0.034943,0.010224,-0.0022889,0.061799
-0.16556,0.26749,-0.32364,-0.19425,0.058442,0.036774,0.085603,0.048066
-0.010834,0.37125,-0.12467,-0.23819,-0.0056458,0.036164,0.035248,0.10391
0.13687,-0.34562,0.073091,0.062715,-0.13657,0.13535,0.1387,0.2089
0.041657,-0.24674,-0.051728,-0.12924,-0.081636,0.090486,0.00045777,0.036164
0.086519,-0.65904,0.030671,0.15152,0.009308,-0.0032044,-0.058137,-0.048981
-0.042573,-0.21836,-0.037995,-0.05478,0.076143,-0.033722,0.0053407,-0.059968
0.11093,-0.0062562,0.013886,-0.22812,0.065766,-0.046235,0.010834,-0.059358
0.23362,0.18051,-0.14267,-0.26322,-0.0019837,0.0083925,0.015717,-0.053559
-0.053254,0.1387,-0.099336,-0.098726,0.031891,-0.040131,-0.13474,-0.093843
-0.13626,0.16953,-0.019074,0.28824,-0.052644,0.013275,0.081331,0.031281
-0.060578,0.11429,-0.059358,0.043183,-0.021515,0.072786,0.17075,0.069429
-0.011139,-0.27634,0.023651,-0.13993,0.15885,-0.024262,-0.030671,0.015717
0.009308,-0.19455,-0.041047,0.19333,0.016938,0.00076295,-0.009308,-0.019684
-0.12589,0.18967,-0.0972,-0.10941,0.093843,-0.070649,-0.01236,-0.04593
-0.11337,-0.048066,0.00076295,-0.041352,0.22446,-0.053559,-0.010834,0.053559
-0.15763,0.012665,-0.078279,-0.0013733,0.060578,0.042573,0.051118,0.12619
-0.1677,0.063325,-0.27024,-0.33402,-0.048676,0.026398,0.0013733,0.085603
-0.10025,0.23758,-0.41032,-0.3624,-0.16098,0.061494,0.010834,0.092927
-0.0044251,-0.29557,0.068208,-0.22812,-0.18479,0.081331,0.056306,0.10575
-0.047761,0.12009,0.041047,-0.12802,-0.076143,0.035248,0.066072,0.05539
0.057527,-0.032807,0.015717,0.027924,-0.032502,0.046235,0.068208,0.070649
0.15702,-0.043793,0.05478,0.017243,-0.019684,0.053559,0.044099,0.033722
0.025788,0.095979,0.02945,0.018769,0.08957,-0.020294,-0.051118,-0.12406
-0.09781,-0.20401,-0.032807,-0.11734,0.12894,-0.067903,-0.11704,-0.16587
-0.21012,-0.0086976,-0.23575,-0.19059,0.036164,-0.035859,-0.15579,-0.059358
0.034333,-0.20432,0.099947,0.053254,-0.14237,0.077363,-0.016938,0.052033
0.24643,-0.30106,0.17563,0.13321,-0.10086,0.04654,0.013275,-0.0010681
0.047456,0.080415,-0.061799,-0.14084,0.10361,-0.083772,-0.095674,-0.22507
-0.018158,0.016327,-0.18143,-0.17746,0.24491,-0.1265,-0.0032044,-0.19699
0.14115,-0.48295,0.034333,-0.0071717,0.023651,0.09659,0.23087,-0.0050355
-0.0053407,0.048676,-0.13962,-0.02884,0.014191,-0.02121,0.023041,-0.02945
-0.041047,-0.25284,-0.077974,0.056611,0.0010681,-0.10971,0.075227,0.039826
-0.11398,0.025788,-0.21927,-0.2031,0.071565,-0.05417,-0.057527,0.09659
-0.13138,0.25437,-0.16739,-0.15488,0.0795,-0.019074,0.094759,0.18173
-0.091707,0.044404,-0.041962,-0.01297,-0.08957,0.07248,0.37339,0.1564
-0.069734,0.0041199,0.0077821,-0.023041,-0.069123,0.017243,-0.77073,0.027619
-0.12955,0.26047,-0.1265,-0.19211,-0.076753,0.067292,-0.23545,0.055085
-0.084077,0.12924,-0.048371,-0.36637,-0.077363,0.15946,0.38499,0.083772
-0.055695,0.03769,-0.023651,-0.19425,-0.0013733,0.060578,0.06302,0.031281
-0.1091,0.045624,-0.023651,-0.09659,-0.023651,0.072175,0.14328,0.045624
-0.016938,-0.16403,0.0047303,0.013275,-0.14176,0.11002,0.20554,0.035859
0.18875,-0.43839,0.053864,0.50034,-0.051423,0.050202,0.22171,-0.0056458
0.041352,0.19852,-0.018158,-0.13138,0.19089,-0.090486,0.070649,-0.14664
0.049592,-0.15702,-0.0083925,-0.35386,0.082246,-0.10788,-0.19791,-0.08835
-0.04593,0.058747,-0.11612,0.090791,0.016632,-0.058442,-0.58488,-0.033722
0.077974,-0.26047,-0.066072,-0.091096,0.22263,-0.034028,-0.013275,-0.011139
0.04593,-0.33585,-0.044404,-0.14603,0.041047,0.065461,0.36454,0.018769
-0.12528,0.077363,-0.12741,-0.52445,-0.034943,-0.037385,-0.053254,-0.016938
-0.11643,0.061189,-0.18784,-0.45182,-0.1146,0.049287,0.29191,0.1088
-0.26261,0.36606,-0.19364,-0.12161,-0.13107,0.095674,0.52232,0.066377
-0.22812,0.25772,-0.1738,0.017853,-0.091096,0.067292,0.35386,0.095979
-0.095064,0.058137,0.11551,0.80674,-0.0080873,-0.01297,-0.3032,0.095369
-0.0071717,-0.34897,0.1564,0.45762,0.13321,-0.13077,-1.3997,-0.051423
0.069123,-0.34836,-0.16922,-0.34836,0.18448,-0.066072,-0.06302,-0.023651
-0.026703,0.031586,-0.024262,-0.41611,-0.051118,0.062409,0.29862,-0.011444
0.048066,-0.21897,-0.10727,-0.0972,-0.040742,0.044709,0.088045,-0.02121
0.026093,0.26383,-0.068513,0.41672,0.082246,-0.005951,0.12833,-0.055085
0.076448,0.083162,0.087129,0.085908,-0.0206,0.026093,0.092012,-0.087129
-0.0068666,-0.24002,0.018769,-0.37125,-0.032807,-0.023041,0.082856,-0.069123
0.103,-0.46494,0.021515,-0.4625,0.16953,-0.11093,0.053559,-0.038605
0.10544,-0.1561,-0.075227,-0.24338,0.12009,0.019989,0.086519,0.06302
-0.022431,0.18418,-0.16861,-0.24582,0.11002,0.012055,0.027619,0.016632
0.033417,-0.050507,-0.022736,0.11978,-0.046845,0.087434,0.082551,0.027619
0.035859,-0.014801,0.028229,-0.11368,-0.15732,0.07248,0.029755,-0.011444
0.020294,-0.045624,-0.34409,-0.069429,-0.091096,0.014496,-0.023041,-0.035248
-0.038911,0.28336,-0.29984,-0.048981,-0.075227,-0.016327,-0.039826,-0.051423
-0.040742,-0.010224,-0.024262,-0.059052,0.0010681,-0.0056458,-0.0096132,0.011749
-0.075227,-0.02884,0.30259,-0.22019,0.056001,0.015106,-0.02121,0.018769
-0.20066,0.11795,-0.15915,-0.47013,0.033417,-0.068513,-0.12985,0.0035096
-0.19608,-0.11948,-0.066072,0.25956,-0.051423,0.036774,0.0028992,0.07248
-0.14694,-0.0016785,-0.087129,0.078279,-0.028229,0.095369,0.15732,0.11002
-0.092317,0.030365,-0.059968,-0.15366,-0.13993,0.11948,0.18051,0.15824
0.073396,-0.024262,0.068208,-0.041657,-0.022126,0.04715,0.19455,0.14847
0.20523,-0.11856,-0.0090028,0.08835,0.23728,-0.083467,0.14908,0.0016785
-0.04593,-0.098116,0.063935,0.32364,0.12161,-0.019684,0.073396,-0.034943
-0.3563,-0.059968,-0.098726,-0.017243,0.045624,-0.03769,-0.19821,-0.011139
-0.030671,0.16648,-0.17777,-0.23392,0.061494,-0.068208,-0.27298,0.10025
0.023651,-0.032807,-0.024872,-0.084688,-0.027314,-0.015717,-0.23575,0.053864
-0.023346,-0.027619,-0.13107,-0.11368,-0.0035096,0.082551,0.072175,-0.033722
0.14115,-0.57206,0.08011,-0.060578,-0.053864,0.092927,0.25437,0.0032044
0.14328,-0.30686,-0.16739,-0.1619,0.041657,-0.066072,0.055695,-0.055695
-0.04593,0.21653,-0.10422,-0.12436,0.072175,-0.049897,-0.10697,-0.095064
-0.15244,0.053254,-0.035554,-0.11704,-0.04593,0.0206,-0.26658,-0.064546
-0.21195,0.11154,-0.14725,-0.10269,-0.05478,0.035554,0.0068666,0.048981
0.063325,0.059358,-0.12375,-0.06363,-0.051728,0.040131,0.096895,0.068208
-0.0086976,0.073701,-0.096284,-0.19181,-0.050507,0.062409,0.090791,-0.00045777
-0.21042,0.19181,-0.038605,0.019379,-0.02884,0.051118,0.11643,-0.016327
-0.11734,0.11765,-0.012665,-0.32853,-0.015412,0.01297,0.12314,0.12619
0.018158,-0.1445,0.048371,-0.10849,0.056306,-0.042878,-0.023041,0.099641
0.024262,-0.23636,-0.032502,-0.13077,0.024262,-0.011139,-0.079194,0.00045777
0.13413,-0.34043,-0.052338,0.11704,0.038911,-0.043488,-0.033417,-0.041047
0.11521,-0.22995,-0.032807,0.028534,0.079194,-0.018769,-0.014191,-0.095064
0.058442,-0.33188,0.059663,0.0099184,0.088655,-0.020294,0.0010681,-0.10208
-0.21469,0.19944,-0.0041199,-0.13443,-0.052644,0.032502,0.041657,-0.059968
-0.16281,0.20279,-0.20798,-0.24186,-0.02945,0.05417,0.061189,0.095979
-0.0083925,0.012665,-0.14389,-0.19333,0.024262,0.076448,0.064546,0.10819
0.073396,-0.15,0.0038148,-0.033722,0.024262,-0.011444,0.016938,-0.026703
-0.025177,0.25772,-0.030976,0.28092,0.093233,-0.11551,-0.087434,-0.067597
-0.037385,0.25589,-0.017548,0.059663,0.02945,-0.041962,-0.12528,-0.036774
-0.018463,-0.10147,-0.21805,-0.16068,-0.093843,0.10056,0.22202,0.010834
-0.036469,-0.051423,-0.086213,-0.057221,-0.069734,0.027008,0.16495,0.0013733
0.051728,-0.2266,-0.10208,-0.099031,0.016632,-0.062409,-0.11551,0.0074769
-0.040436,0.091707,-0.0080873,-0.19364,0.092317,-0.055695,-0.30564,0.041657
-0.07187,0.12833,-0.18143,-0.22354,0.034028,-0.023041,-0.38102,0.10269
-0.0065614,-0.2742,0.062104,-0.17105,-0.022126,0.1033,0.25956,0.1503
0.11032,-0.44877,-0.0019837,-0.24887,-0.0044251,0.08896,0.31968,0.040436
0.10544,-0.30686,-0.065766,-0.062409,-0.018463,0.027008,-0.026703,-0.074922
0.0035096,0.26596,-0.043183,0.13535,-0.018158,0.016938,-0.051728,-0.10422
-0.10636,0.16678,-0.066072,-0.077668,-0.012055,0.00015259,-0.08957,-0.071565
0.005951,0.091707,-0.14755,0.073701,-0.024567,0.034028,-0.063935,-0.055085
0.13077,-0.44511,0.42985,0.52018,0.016938,0.024567,-0.0053407,-0.096284
0.08011,-0.35508,-0.075837,-0.11337,0.15793,-0.092012,-0.14481,-0.21012
-0.13352,0.16617,-0.2211,-0.090791,0.18082,-0.084688,-0.039826,-0.14206
-0.18082,0.23026,-0.16861,-0.11734,0.090791,-0.023957,0.32853,0.10086
-0.20554,0.16556,-0.14847,-0.645,0.098726,-0.056611,0.54002,0.15824
-0.13809,-0.016327,-0.063325,-0.17288,-0.21469,0.13352,0.4683,0.19883
-0.071565,0.12039,-0.21164,0.049897,-0.14786,0.036774,-0.40116,0.17075
-0.15244,0.33036,-0.29984,-0.093843,0.014191,-0.043793,-0.6807,0.041962
-0.24521,0.37003,-0.12863,-0.309,-0.10117,0.065156,0.19883,0.081941
-0.13077,-0.15061,0.36271,-0.21225,-0.13596,0.084993,-0.16678,0.076448
-0.10605,-0.47257,0.12711,-0.050202,-0.048676,0.18753,0.15,0.12436
0.12375,-0.54551,0.05478,0.10117,-0.034333,0.11582,0.1387,0.10239
0.022736,0.011444,-0.18814,-0.013581,0.056916,-0.043183,0.081636,-0.00015259
0.18448,-0.20249,0.059663,0.091402,0.061799,-0.018158,0.35386,-0.050813
0.30991,-0.27939,-0.12833,-0.065766,0.086824,-0.02884,0.32273,-0.084382
0.13321,-0.073396,-0.1265,-0.12741,0.14023,-0.0795,0.078279,-0.21836
-0.04654,0.43748,-0.01236,0.014801,0.023651,-0.065156,-0.63615,-0.11307
-0.020905,0.1564,-0.066377,0.0071717,0.081941,-0.1677,-1.039,-0.053864
-0.030365,-0.10422,-0.10269,-0.12894,0.082551,-0.04654,0.23423,-0.057221
-0.030671,-0.16007,-0.060578,-0.20401,-0.031281,0.095979,0.41459,0.0080873
-0.083772,0.031586,-0.14298,-0.12345,-0.022126,0.084688,0.16159,0.05417
-0.066987,0.08957,-0.086519,0.35996,0.050507,-0.0068666,-0.079194,0.066682
-0.069123,-0.00015259,-0.17166,-0.31357,0.077668,-0.06363,-0.22477,0.059358
-0.15152,0.023651,-0.08072,-0.41337,-0.14206,0.062104,0.18662,0.072175
-0.12467,-0.27268,-0.002594,-0.16007,-0.21927,0.1091,0.20859,0.15061
-0.15396,-0.018769,-0.032197,0.0035096,-0.043183,0.010529,0.073396,0.0795
-0.14633,0.4213,-0.121,0.032807,0.098116,-0.028229,-0.019684,-0.0096132
-0.012665,0.14725,-0.044099,-0.1619,0.10269,0.0077821,-0.017243,0.070649
-0.01297,-0.14572,-0.11429,-0.38743,0.067292,0.010834,0.017243,0.077668
0.042267,-0.54582,0.04654,0.074311,-0.081331,0.11185,0.12436,0.043183
-0.069429,-0.29343,0.036164,0.14328,-0.082856,0.074922,0.067903,0.015717
0.014801,0.01236,0.009308,0.12284,0.075837,-0.043488,-0.053559,-0.044709
0.12039,0.066377,0.040131,0.1445,0.094759,-0.04593,-0.025788,-0.074617
0.0074769,0.23514,-0.069123,0.044709,0.14023,-0.049897,-0.027008,-0.12833
0.099031,-0.00015259,-0.052033,-0.23117,0.04715,0.0080873,0.12284,-0.0383
0.23789,-0.41764,-0.059968,-0.23941,-0.030365,0.017853,0.22599,-0.056916
-0.030365,-0.016022,-0.20188,-0.20096,0.02945,-0.034333,0.14786,-0.14939
-0.10697,0.027924,-0.11093,-0.11795,-0.0068666,-0.021515,-0.16159,-0.070954
0.0019837,0.07187,-0.059968,-0.0044251,-0.053559,0.023957,-0.45884,0.067292
-0.19699,0.12528,-0.11215,0.1033,-0.042878,0.011139,-0.010529,0.050202
-0.15274,0.11002,-0.18021,-0.13687,-0.10086,0.050202,0.14694,0.074311
-0.0972,0.084688,-0.11765,-0.31937,-0.019684,0.033112,0.050507,0.081941
-0.034943,-0.17685,0.042878,-0.30564,0.079805,-0.035859,0.002594,0.04715
-0.013581,-0.14664,0.016632,-0.068513,0.033722,-0.034333,-0.014801,0.098116
-0.017243,-0.073396,0.12833,0.11002,-0.033417,0.04715,0.025483,0.056306
0.052338,-0.093843,-0.10422,0.11917,-0.038605,0.065766,0.097505,-0.051423
-0.047456,0.062409,-0.086213,-0.42985,0.050202,-0.017853,-0.017243,-0.08072
-0.062715,0.017853,-0.0080873,-0.3917,0.081331,-0.016022,-0.00015259,-0.032502
-0.044709,-0.077974,0.10269,0.72221,0.068208,-0.015717,0.0383,-0.01236
-0.017548,-0.17472,-0.10513,-0.17594,0.03769,0.027924,0.05417,0.015412
0.036164,-0.28153,-0.15274,-0.24735,-0.11398,0.12345,0.10819,0.027619
-0.01297,0.066377,-0.14054,-0.085298,-0.091402,0.092317,0.11917,0.041047
0.026703,0.036469,-0.050202,0.032502,0.051728,-0.035859,-0.051728,-0.0071717
-0.094453,0.062409,-0.031586,0.19577,0.0035096,-0.06302,-0.16831,-0.016938
-0.14481,-0.1677,0.047456,-0.15335,0.043488,-0.074311,-0.098116,-0.033417
-0.2031,-0.084382,-0.13046,-0.21805,0.13993,-0.037385,-0.14145,-0.028229
-0.24979,0.06424,-0.095369,-0.27176,0.088045,-0.019684,-0.0035096,0.014191
-0.013275,0.12802,-0.092622,-0.020905,-0.12528,0.0972,0.103,0.1854
0.19944,0.22416,-0.15274,-0.090791,-0.022431,0.02884,0.019989,0.10758
0.15396,0.12558,-0.18662,-0.059052,0.023651,-0.029755,0.0074769,0.035554
0.098421,-0.40513,-0.07126,-0.1326,-0.027314,0.022126,0.052949,0.0047303
-0.031281,0.0056458,0.016632,-0.17929,-0.0071717,0.018463,0.083772,-0.045319
0.0038148,-0.29068,0.15305,0.058747,-0.099947,0.10513,0.11185,0.019379
0.08072,-0.077363,-0.082246,-0.022431,-0.035554,0.058137,0.070344,0.022126
0.13626,-0.087739,-0.023041,0.031891,0.12039,-0.069734,-0.055085,-0.045319
-0.0074769,0.0013733,0.026093,0.15305,0.089265,-0.092622,-0.11643,-0.056001
-0.092317,-0.12894,0.070649,-0.19944,0.098421,-0.083467,-0.090791,-0.078279
-0.099947,0.025177,-0.10117,-0.22599,0.12558,0.016632,0.041657,0.052338
-0.11795,0.12467,-0.12161,-0.19516,0.079194,0.074311,0.064546,0.037079
0.0010681,-0.19852,0.066377,-0.0050355,-0.040742,0.070344,0.043793,-0.002594
0.033112,-0.32761,-0.11856,0.0044251,-0.057832,0.023957,0.020905,-0.060883
-0.081941,0.098421,-0.16861,-0.14969,0.017243,-0.045319,-0.045014,-0.051118
-0.15213,0.24918,-0.12894,-0.15274,-0.053864,0.00015259,-0.018769,0.027008
-0.12009,0.14939,-0.10849,-0.17502,-0.07187,0.042573,0.16403,0.086824
-0.092927,0.12131,-0.23819,-0.16068,-0.081331,0.087739,0.28336,0.096895
-0.048371,-0.0096132,-0.054475,-0.14969,-0.14023,0.14298,0.11704,0.12436
-0.047761,-0.20035,-0.070649,-0.15976,-0.10422,0.052338,-0.1564,0.077974
-0.076753,-0.1738,0.047761,0.11124,0.011139,-0.08072,-0.37705,0.055695
-0.081025,0.075532,0.066072,0.038911,0.14054,-0.057832,-0.097505,0.0206
-0.056916,0.12772,0.01236,-0.013581,0.19913,-0.026398,0.13779,-0.023041
0.073396,-0.18662,0.017243,0.037995,0.083772,-0.011749,-0.065156,-0.08835
-0.02121,-0.048371,-0.1088,-0.28855,-0.0096132,0.0080873,0.0071717,-0.092927
-0.090181,0.10239,0.038911,-0.24704,-0.025788,0.061494,0.13809,0.051728
0.074006,-0.21408,0.026703,0.29587,0.011444,0.042573,0.061799,0.083467
0.16526,-0.42985,-0.0972,0.21653,0.10758,-0.040436,-0.035248,-0.013581
0.07187,-0.1207,-0.12284,-0.18509,0.11887,-0.046235,0.010834,-0.10361
-0.04654,0.19455,-0.15549,-0.2623,0.00076295,0.0013733,0.03769,-0.11582
-0.13352,0.24125,-0.10727,-0.0972,-0.074006,0.0013733,-0.025788,-0.0013733
-0.11246,0.19852,-0.084688,0.060273,-0.094148,0.0099184,-0.02945,0.075227
-0.045319,-0.030365,-0.11276,-0.21225,0.0096132,-0.051423,0.052033,0.037385
-0.06302,-0.17868,0.023957,-0.22812,0.020905,0.018463,0.14115,0.023957
0.017853,-0.32578,-0.15061,-0.005951,-0.033417,0.049592,-0.014496,0.067903
0.027314,0.051728,-0.17258,-0.18662,-0.0056458,-0.0016785,-0.050507,0.059663
-0.033112,0.26474,-0.029755,-0.24308,-0.042878,0.064546,0.085298,0.076143
-0.11185,0.041352,0.076143,-0.20188,-0.11215,0.081331,0.121,0.067903
0.017243,-0.60502,0.10422,0.24674,-0.010529,0.014496,-0.022431,0.010529
0.026093,-0.38712,-0.018769,0.36362,0.076143,-0.019684,-0.056916,-0.052949
-0.019379,0.19821,-0.32456,-0.23728,0.17105,-0.080415,-0.074922,-0.12039
-0.05539,0.035554,-0.034333,-0.32761,0.11398,-0.0077821,-0.035859,-0.065156
0.047761,-0.070954,0.066072,-0.28092,-0.035248,0.074617,0.07187,0.017853
0.079805,-0.29496,0.26505,0.045319,-0.11582,0.11002,0.21927,0.05417
0.020294,0.14237,-0.11307,0.40238,-0.034638,0.024262,0.16678,-0.044709
-0.052033,0.42985,-0.13321,0.22141,0.069429,-0.060273,0.12467,-0.0795
-0.019684,0.24796,-0.13931,-0.1796,0.13199,-0.094453,0.13016,-0.02121
-0.035248,0.15824,-0.15763,-0.46464,0.10636,-0.075227,-0.1091,-0.0068666
0.050507,-0.4509,-0.048981,-0.26749,0.0090028,-0.0090028,-0.12375,-0.024872
0.02945,-0.17807,-0.28885,-0.19944,0.047456,-0.057221,-0.80125,-0.0056458
-0.31296,0.52964,-0.014191,0.036774,0.045624,-0.059052,-0.20218,-0.035859
-0.29953,0.15274,0.077058,-0.043488,-0.1326,0.10727,0.31754,0.14817
-0.11185,-0.60319,0.059663,-0.093538,-0.15427,0.17014,0.18967,0.25986
0.065461,-0.32303,-0.10422,-0.0090028,-0.063325,0.026398,0.068208,0.13779
0.088045,-0.15854,-0.14267,-0.040742,0.02121,-0.034943,0.036164,-0.0080873
0.10178,-0.34348,-0.040131,-0.0795,0.045319,0.037079,0.35843,-0.039521
-0.049897,0.098726,-0.095064,-0.30594,0.05417,0.030976,0.36637,-0.033417
0.05539,0.168,-0.05417,0.19425,-0.054475,0.022431,-0.37308,-0.010834
0.039216,0.18753,-0.0047303,0.033722,-0.035554,0.039521,-0.68864,-0.022736
0.016632,-0.30289,0.16464,-0.24521,0.08072,0.034028,0.17563,-0.064851
-0.0074769,-0.3508,0.04593,0.062104,-0.016938,-0.051728,-0.038911,0.0035096
-0.084382,-0.12253,-0.17014,-0.32151,0.15,0.005951,0.10575,-0.060883
-0.13138,0.2916,-0.27787,-0.44297,0.1149,0.081636,0.3389,-0.00015259
-0.15763,0.39963,-0.0044251,0.25864,-0.1323,0.0050355,-0.10208,0.032807
0.023041,-0.21836,0.070954,0.14939,0.0096132,-0.08011,-0.040436,-0.057832
0.093538,-0.066987,-0.23209,-0.045319,0.10208,-0.061189,0.060578,-0.1323
-0.16007,0.1622,-0.14572,-0.29923,-0.0071717,0.027008,-0.20615,-0.00045777
-0.051728,0.038605,0.0035096,-0.16403,-0.022126,0.043183,-0.0032044,0.14542
0.12894,-0.035554,-0.0047303,-0.12558,-0.048981,0.0022889,0.25803,0.19577
-0.090181,-0.17899,-0.14511,0.19974,0.023041,-0.036469,0.11826,0.045319
-0.22141,0.11795,0.013275,-0.082856,0.08072,-0.057221,-0.15885,0.086213
-0.035859,-0.093538,0.098726,-0.053559,-0.13626,0.093233,0.067597,0.23087
0.053864,0.068513,-0.168,-0.091707,-0.036774,0.11978,0.16495,0.063325
0.0383,-0.062409,0.022126,-0.040131,0.017243,0.067292,0.19333,-0.0074769
0.13321,-0.35172,-0.13535,-0.063325,-0.023651,0.040742,0.2977,-0.059358
0.11765,-0.21897,-0.005951,0.0053407,0.081941,-0.027008,0.1973,-0.14481
-0.090791,0.20279,-0.081331,-0.050507,0.045319,0.0041199,-0.029755,-0.12161
0.051728,-0.11948,0.0013733,-0.032197,0.082551,-0.10575,-0.7216,-0.079805
0.058137,0.077668,-0.094148,-0.1207,0.090181,-0.099947,-0.52567,-0.059663
0.062104,-0.30014,-0.058442,0.0050355,0.043793,0.062104,0.33066,-0.055695
-0.11032,0.094759,-0.17014,-0.11154,0.034028,0.019379,0.18753,-0.063935
-0.099031,-0.056916,0.017853,-0.15579,0.031891,-0.024262,-0.014191,0.03769
-0.17868,0.028534,-0.19089,-0.52323,-0.095674,0.048676,0.069429,0.11795
-0.17197,0.21805,-0.15518,0.20737,-0.21469,0.094453,0.11276,0.11704
-0.17227,0.15976,-0.20615,-0.3386,-0.10819,0.070649,0.13504,0.1384
-0.11154,-0.14755,0.059968,-0.12985,0.18296,-0.036164,0.025483,0.11185
0.022736,-0.15579,0.1149,0.6157,-0.0028992,0.088655,0.037385,0.1854
0.0038148,0.11368,0.041657,0.39689,0.072175,-0.02884,-0.074006,0.067903
-0.14359,0.037385,-0.026398,-0.47501,0.1268,-0.088045,-0.092927,-0.069734
-0.084077,-0.21561,-0.17777,-0.54307,-0.10758,0.078584,0.034333,-0.022431
0.035859,-0.33646,0.056001,-0.15549,-0.062715,0.049592,0.029755,-0.01297
0.26719,-0.58152,0.056916,0.21866,0.068208,-0.065766,-0.043183,-0.1146
0.21286,0.25193,-0.20096,-0.0065614,0.10422,-0.048371,-0.0065614,-0.11582
0.033417,0.11826,-0.0972,-0.25406,0.10819,-0.0096132,0.04654,-0.16434
0.045014,-0.066072,0.06424,0.049592,-0.0035096,-0.013886,-0.010224,-0.10971
-0.013581,0.046235,-0.056916,-0.02121,0.037385,-0.02945,-0.048676,-0.056611
-0.097505,0.11643,-0.13443,-0.10941,-0.065156,0.06302,0.002594,0.0068666
-0.14328,0.14755,-0.096284,-0.14603,-0.034638,0.06302,-0.0062562,0.024872
-0.21317,0.15976,-0.099641,-0.15885,-0.024567,0.022126,0.0096132,0.044099
-0.068208,0.076448,-0.13138,-0.13352,-0.065461,0.028229,0.098726,0.14542
-0.08896,-0.061799,-0.15183,0.022736,-0.10849,0.06363,0.15518,0.18906
-0.032807,-0.30686,0.0083925,0.013581,0.015412,-0.043488,0.047456,0.11551
-0.0383,-0.048981,0.040436,-0.13291,0.15885,-0.053559,-0.057221,0.12314
-0.12253,0.19242,-0.08011,-0.16526,0.090791,-0.0041199,-0.041962,0.049897
-0.10239,0.12589,-0.12497,-0.21195,-0.030671,0.076448,0.11093,0.038911
0.033112,-0.06424,-0.057832,-0.11978,-0.062104,0.093843,0.13443,0.030365
-0.00045777,-0.21408,0.01236,-0.13993,-0.075837,0.041657,0.032807,-0.052033
-0.037079,-0.40452,0.084382,-0.022431,-0.055695,0.037079,-0.050813,-0.039216
0.12985,-0.72404,0.28977,-0.042573,-0.026398,0.046235,-0.02945,0.027008
0.10849,-0.075837,-0.10452,0.41855,0.13199,-0.077058,-0.11368,-0.088045
-0.025177,0.66758,-0.24704,-0.32425,0.19577,-0.12222,-0.15885,-0.16434
-0.11154,0.33768,-0.13626,-0.27329,-0.0013733,0.016938,-0.092317,-0.12375
-0.15946,0.18143,-0.25528,-0.21592,-0.11551,0.093843,0.027314,-0.018463
0.19699,-0.27695,0.0096132,0.11795,-0.064546,0.10056,0.22141,0.082551
0.29191,-0.57786,0.046235,0.72099,0.15671,-0.074617,0.26596,-0.075837
0.015106,-0.0022889,-0.13107,-0.095369,0.26413,-0.1677,0.20737,-0.19272
-0.14206,0.23331,-0.12314,-0.26841,0.080415,-0.031891,0.22171,-0.045319
-0.13474,0.11948,-0.073091,-0.26413,-0.093233,-0.0099184,-0.58915,0.11276
-0.12467,-0.11795,-0.056306,-0.13596,-0.16403,-0.039216,-1.0127,0.12924
-0.16556,0.07126,-0.049287,-0.22202,-0.12436,0.06363,0.22171,0.17777
-0.15366,0.15457,-0.11887,-0.40574,0.067597,0.0206,0.28031,0.17319
-0.044709,-0.14206,-0.027008,-0.30259,0.054475,0.086824,0.17441,0.21683
-0.025177,-0.20798,-0.055695,0.0065614,-0.14725,0.20188,0.25803,0.12589
0.053254,-0.49638,0.18967,0.13413,-0.095064,0.074311,0.2797,0.023041
0.065156,-0.076143,0.062409,0.32486,0.13565,-0.044404,0.20584,-0.048371
0.05539,0.28733,-0.093538,-0.041657,0.18936,-0.061494,0.13657,-0.11582
-0.034943,0.13077,-0.15976,-0.26566,0.085603,-0.011444,0.13107,-0.10941
-0.11765,-0.090791,-0.04593,-0.041047,-0.014496,-0.0013733,-0.67338,-0.11398
-0.015106,-0.11673,-0.077974,0.036164,-0.0086976,-0.03006,-0.64225,-0.059052
-0.061799,0.25254,-0.098726,-0.13565,0.079194,0.0047303,0.22904,-0.018769
-0.12375,0.34653,-0.14481,-0.24613,0.050507,0.016327,0.19333,0.051118
-0.16709,0.002594,-0.17533,-0.18784,-0.095674,0.018158,0.19852,0.10178
-0.096895,-0.40146,-0.091096,-0.15213,-0.13169,0.04715,0.17319,0.073701
-0.093538,-0.12039,0.029755,-0.07126,-0.085908,0.0077821,0.096284,0.0074769
-0.10727,0.089265,0.032807,0.099031,-0.055695,-0.021515,-0.21347,0.0065614
0.069429,0.016327,-0.17319,0.030671,0.040436,-0.011749,-0.16861,-0.015412
0.15,-0.11551,-0.094453,-0.062715,0.029755,0.077363,0.1622,-0.0053407
0.262,-0.27451,-0.010224,-0.06363,-0.012665,0.074922,0.039216,-0.018158
0.087739,-0.018158,-0.002594,-0.058747,0.060578,-0.049287,-0.043488,-0.025788
-0.038605,0.00015259,-0.0035096,-0.21134,0.11795,-0.047761,0.025483,-0.020294
-0.044404,-0.21042,-0.005951,-0.35019,0.037079,0.062715,0.14847,0.030365
-0.08835,-0.10483,-0.00015259,-0.48569,-0.072175,0.086824,0.15274,-0.023651
-0.10422,-0.0099184,0.11002,0.66117,0.037995,-0.02182,0.029755,-0.0047303
0.08835,-0.18936,0.034943,0.20737,0.12314,-0.069123,-0.19455,0.015106
0.020905,-0.11185,-0.12863,-0.2504,0.043793,0.0041199,-0.073091,-0.031586
0.047761,-0.094453,-0.26322,-0.19181,0.023957,0.036469,0.15885,-0.045624
0.023957,0.12558,-0.21683,-0.070649,-0.0096132,0.0099184,0.19486,-0.048676
0.019684,0.11765,0.043488,0.39841,0.0086976,-0.026093,0.059358,-0.037079
-0.11734,0.14511,-0.15579,0.016632,0.067903,-0.040436,-0.046845,-0.073701
-0.2855,0.22324,-0.17411,-0.44144,0.11246,-0.08957,-0.2504,0.016632
-0.065766,-0.28153,-0.047761,-0.35416,-0.086213,0.002594,-0.37858,0.17105
-0.21836,-0.20859,-0.056916,-0.073091,-0.15579,0.10361,0.095674,0.20371
-0.30014,0.17197,0.038911,0.068818,-0.10544,0.083467,0.27939,0.18357
-0.12009,0.3801,-0.14267,-0.072786,-0.022431,0.0383,0.085908,0.15824
0.017853,-0.078279,0.0053407,-0.2089,0.011444,0.013886,0.026703,0.057832
0.13199,-0.28885,0.056001,-0.46372,-0.026703,0.027008,0.009308,0.02884
0.052338,0.076143,-0.060273,-0.36973,-0.034943,0.035248,0.022736,0.042267
0.13596,-0.21256,0.048066,0.16587,-0.042573,0.10361,0.1326,0.038911
0.17929,-0.31174,-0.018158,0.4033,0.045319,0.042573,0.040131,0.026703
0.084688,-0.21775,-0.01236,0.34043,0.2034,-0.10056,-0.060883,-0.13382
0.074311,-0.1088,-0.11887,0.12833,0.17685,-0.10819,-0.086213,-0.19394
-0.027314,0.22843,-0.076448,-0.27451,0.11643,-0.089876,-0.069429,-0.19028
0.02945,0.10575,-0.082246,-0.21897,0.066682,-0.069429,-0.088045,-0.14389
0.0013733,-0.019684,-0.05478,-0.14054,-0.035248,0.02884,-0.00015259,-0.0090028
-0.14847,0.14206,-0.17105,-0.12253,-0.035859,0.038911,0.052338,0.0096132
-0.18173,0.32547,-0.24796,-0.17594,-0.042573,0.063325,0.27207,0.070039
-0.15061,0.27359,-0.10666,-0.1915,-0.069123,0.091707,0.33646,0.15488
-0.27878,-0.11276,-0.028534,-0.1561,-0.088045,0.08835,0.1564,0.14664
0.081331,-1.0451,0.33036,0.069429,-0.10361,0.029145,-0.22873,0.17746
0.17685,-0.19944,-0.11093,0.067292,-0.077668,-0.031586,-0.64897,0.017853
-0.0074769,0.25864,-0.24216,-0.23026,0.11032,-0.043488,-0.33677,-0.23117
-0.039521,0.31083,-0.013886,-0.15335,0.11215,-0.0010681,-0.028229,-0.069734
-0.17166,0.17411,0.044099,0.027924,-0.030671,0.03006,0.085603,0.012665
-0.1265,-0.040436,-0.049287,-0.11307,0.024262,-0.0068666,0.14542,0.075227
0.11368,-0.66636,-0.059358,-0.073701,0.092317,-0.043183,0.27726,0.10758
0.10269,-0.24063,-0.043793,-0.064546,0.0795,0.011444,0.21653,0.018769
0.053254,0.040131,-0.055695,-0.15152,-0.077974,0.066987,0.1149,-0.00076295
0.092927,0.058747,0.023957,-0.24399,-0.16068,0.065156,0.033417,-0.0062562
-0.015412,0.062409,-0.11337,-0.020905,-0.08072,0.045014,-0.039216,-0.10025
-0.06302,0.2855,-0.24582,0.06363,0.11826,-0.036469,-0.10056,-0.14481
-0.090181,0.053254,-0.076448,0.066682,0.1268,-0.017548,0.11002,-0.0065614
-0.15183,-0.30106,-0.041657,-0.13199,0.1149,-0.093538,0.076143,-0.018463
0.04715,-0.54459,0.072786,-0.17899,0.08011,-0.0022889,-0.076143,0.052033
0.14206,-0.32151,0.064851,0.026093,-0.067903,0.079194,-0.34562,0.15702
-0.25772,0.51408,-0.2443,-0.10056,0.045014,-0.042878,0.0028992,0.012055
-0.20279,0.54337,-0.14298,-0.23484,0.022126,0.018769,0.21683,0.077974
-0.078279,0.13535,-0.023651,-0.10758,-0.16831,0.121,0.042267,0.14237
-0.16403,-0.047456,-0.103,-0.10971,-0.13993,0.10697,0.023957,0.039826
0.0068666,-0.0383,-0.070039,-0.10971,-0.045319,0.011139,0.047456,0.1265
0.059052,-0.050202,0.046845,0.10605,-0.017548,-0.048066,0.08011,0.076753
0.21195,-0.43168,0.1976,0.22965,0.019379,0.0053407,0.043488,-0.053254
0.28031,-0.44388,0.15366,0.70909,0.12772,-0.014801,0.011444,-0.083467
-0.091707,-0.094148,-0.084077,-0.60472,0.31998,-0.10819,0.088655,-0.24765
-0.11826,-0.13291,-0.12253,-0.33829,0.11551,0.029145,0.21866,-0.10819
-0.10575,0.11246,-0.21836,-0.16281,-0.13169,0.1857,0.27512,0.05539
-0.15427,0.23392,-0.22965,-0.31662,-0.02121,0.093233,0.32212,-0.077668
-0.00076295,0.011444,-0.056611,-0.10788,-0.013275,-0.062409,-0.4918,-0.11185
-0.0047303,0.12314,-0.098116,0.13443,0.031281,-0.14847,-0.96635,0.00045777
-0.072175,-0.13779,0.066072,-0.20584,-0.012055,-0.099947,-0.0071717,0.017853
-0.077363,-0.024872,-0.086213,-0.20371,-0.070649,-0.076448,0.11398,0.11856
-0.12619,0.1442,-0.11429,-0.11673,-0.048981,0.091096,0.31876,0.15915
0.015412,-0.049897,-0.15396,-0.21988,-0.023346,0.036774,-0.53208,0.10697
0.04654,0.19211,-0.11826,0.38712,-0.047456,0.06302,-0.12924,0.15457
-0.045624,0.13321,0.07248,0.081636,-0.01297,0.090791,0.42924,0.057221
0.0080873,0.059663,0.062409,-0.12436,0.031891,0.023041,0.2034,0.022126
0.0077821,-0.37888,0.014801,-0.32059,0.017853,0.0083925,0.16281,0.066682
0.010529,-0.28977,-0.039216,-0.10483,-0.024567,0.08957,0.21683,0.07126
0.14298,-0.48264,-0.1207,0.12039,0.15213,-0.04593,0.0099184,-0.0022889
0.053254,0.0041199,-0.03006,-0.103,0.17868,-0.10483,-0.3798,-0.11063
-0.11307,0.2681,-0.06424,0.028534,0.052338,0.041657,0.051118,-0.15457
-0.11032,0.12406,-0.059358,-0.21561,-0.019074,0.075837,0.17716,-0.14145
-0.15183,-0.010834,-0.060883,0.13016,-0.074922,0.048981,0.045014,-0.057832
-0.0074769,-0.2385,-0.10025,-0.24033,-0.1033,0.055085,0.086213,0.019684
0.018158,-0.24216,0.036469,-0.061494,0.059663,-0.047761,-0.0044251,0.005951
-0.1857,0.19242,-0.08072,-0.073396,0.1619,-0.1149,-0.085298,-0.038911
-0.23728,0.30625,-0.17746,-0.25956,-0.064851,0.0038148,0.021515,0.077974
-0.072175,-0.0047303,-0.20188,-0.10269,-0.18173,0.13413,0.11246,0.1857
0.036164,-0.48966,0.056916,-0.22416,-0.023041,0.023041,0.017853,0.040131
0.073701,-0.18265,-0.035859,0.0016785,0.038911,-0.073701,-0.0972,-0.040742
0.026093,-0.10391,-0.034638,0.027924,0.11643,-0.0053407,-0.04715,0.011444
0.070344,0.33585,-0.14664,0.0028992,0.0074769,-0.0032044,-0.013275,-0.010529
-0.027008,0.35538,-0.010224,-0.091402,0.029755,-0.054475,0.095674,-0.020905
0.030365,0.019989,-0.05417,-0.42161,0.023041,0.02945,0.30838,-0.0019837
0.15702,-0.20279,-0.028229,-0.053254,-0.030671,0.060273,0.1735,0.031281
0.15091,-0.0019837,-0.016938,0.35233,0.041047,-0.046235,-0.21042,-0.023346
-0.02884,-0.26963,-0.01236,-0.099641,-0.12436,0.058747,-0.40208,-0.067597
-0.2327,-0.054475,-0.05478,-0.44877,-0.040742,0.070649,-0.19852,-0.043183
-0.27573,-0.073396,-0.018769,-0.19516,0.065766,-0.021515,-0.13321,0.0077821
0.027619,-0.12345,0.11124,0.1088,-0.043488,0.051423,0.16648,0.070649
0.15335,0.061189,-0.23575,-0.028534,0.0080873,-0.0028992,0.15061,0.005951
0.14542,-0.19425,-0.13748,0.14939,0.11551,-0.058137,0.079805,-0.039216
-0.02945,-0.14755,-0.10269,0.10513,0.17807,-0.1268,0.0074769,-0.014191
-0.1323,-0.02182,-0.15091,-0.084993,0.075837,-0.035859,-0.016938,0.10452
-0.2211,0.13046,-0.14572,-0.27634,-0.030671,0.053254,0.10269,0.21347
-0.25742,0.31357,-0.025788,-0.13382,-0.040742,0.052949,0.075227,0.16678
-0.17197,0.25467,0.15488,-0.0035096,-0.12741,0.13077,0.12924,0.18662
0.0074769,0.050202,-0.053864,0.087434,-0.074922,0.06424,0.065461,0.12894
0.12314,-0.44358,0.026398,-0.081331,-0.064851,0.037079,-0.0019837,0.0096132
0.1088,-0.54826,-0.08896,-0.24918,-0.011139,0.00076295,-0.0206,-0.08835
0.087739,-0.11948,-0.121,-0.14694,0.14633,-0.034028,-0.047761,-0.1033
0.034943,-0.019989,0.08011,-0.078279,0.12558,-0.011444,-0.0096132,-0.088045
0.10971,-0.18204,0.094453,0.011749,0.02945,-0.029755,-0.021515,-0.10544
-0.037079,0.24918,-0.25834,-0.085908,0.027924,-0.015106,-0.035248,-0.12345
-0.13046,0.2681,-0.1854,-0.10391,0.025483,-0.011444,-0.038605,-0.14847
0.022736,-0.02182,0.066377,0.072175,-0.012665,0.0065614,-0.020905,-0.044709
0.14084,-0.19638,-0.034333,0.14054,0.027008,-0.016022,-0.041352,-0.048981
-0.039826,-0.11612,-0.098421,-0.17197,0.053254,-0.023957,-0.030671,-0.099947
-0.14755,0.026398,-0.14267,-0.23758,0.048981,-0.037079,-0.022431,-0.028229
-0.18204,0.016632,-0.1207,-0.26108,-0.0206,0.00076295,-0.0022889,0.051423
-0.168,0.099947,-0.11215,-0.3801,-0.090181,0.057527,0.043183,0.084688
-0.093843,0.019989,-0.019989,-0.21805,-0.16037,0.080415,0.059358,0.11826
-0.017243,-0.042878,-0.092622,-0.062715,-0.2092,0.09659,0.093538,0.14786
0.0383,-0.24063,-0.018158,0.28855,-0.024872,0.040742,0.063935,0.11978
0.052949,0.080415,-0.0053407,0.43687,0.1268,0.029145,0.048981,0.13199
-0.097505,0.17929,-0.10422,-0.22019,0.067292,0.01236,0.013581,-0.0010681
-0.13138,0.041352,-0.0080873,-0.48173,0.14084,0.00045777,-0.011139,-0.052949
0.030365,-0.068513,0.0080873,-0.087129,0.034333,0.068208,0.035248,0.062104
0.010834,-0.030976,-0.0090028,0.075227,-0.039521,0.0071717,-0.047761,-0.071565
-0.0010681,0.087434,-0.07126,0.14572,-0.0068666,-0.00076295,-0.052033,-0.02945
-0.08835,-0.074311,-0.065766,-0.05478,0.10422,-0.068513,-0.032502,-0.045319
-0.061189,-0.30167,0.020905,-0.15854,0.11612,-0.061494,-0.028534,-0.059968
0.11185,-0.22385,-0.13657,-0.06424,0.02945,0.0099184,0.016632,-0.0013733
0.072175,-0.52842,0.12436,-0.28244,0.031281,0.00015259,0.064546,-0.033417
-0.034333,-0.062715,-0.11276,0.32639,-0.029145,0.0010681,0.18326,-0.0044251
-0.17411,0.32059,-0.15702,-0.19089,-0.023041,-0.061494,0.098421,0.10422
-0.17594,0.36057,-0.11429,-0.11521,-0.085298,-0.020905,-0.20676,0.11063
-0.049592,0.016632,-0.049897,-0.31754,-0.15732,0.10086,-0.33677,0.071565
0.019074,-0.042267,-0.19791,-0.31449,0.0035096,0.037385,0.048981,-0.0090028
0.11612,-0.14481,-0.050507,0.023651,0.13169,-0.021515,0.020294,-0.041352
0.16281,-0.087739,-0.027008,-0.11093,0.043488,0.0206,0.025483,0.047761
-0.14328,0.27787,-0.12741,0.092317,-0.031586,-0.047761,0.06363,0.027008
-0.10758,0.20829,-0.14725,0.33707,-0.025483,0.013275,0.13657,0.094148
-0.14054,-0.059663,0.26139,-0.38163,0.04593,0.12589,0.15061,0.10239
-0.064546,-0.18387,0.0047303,-0.4744,0.048981,0.057527,0.02884,-0.00045777
0.22873,-0.4979,0.056306,-0.088655,0.0041199,0.016327,-0.0044251,-0.058137
0.27939,-0.54185,0.0206,0.076143,0.032807,-0.043488,-0.058747,-0.168
0.21103,-0.41794,-0.077974,0.058137,0.07126,-0.049287,-0.070649,-0.14786
-0.01297,0.29557,-0.1091,-0.028534,0.051728,-0.043793,-0.062104,-0.10605
-0.073701,0.16739,-0.14054,0.043793,-0.0022889,-0.0047303,-0.015717,-0.06302
-0.14969,0.15946,-0.084077,-0.23423,0.0035096,0.0090028,0.036774,-0.049897
-0.16861,0.05539,-0.078279,-0.045624,-0.040742,0.044099,0.17899,0.018769
-0.20798,0.058137,-0.15488,-0.051728,-0.044404,0.05478,0.12802,0.08011
-0.26474,0.28763,-0.22538,-0.1799,-0.010834,0.016022,-0.079194,0.090791
-0.2797,0.23148,-0.13657,-0.26993,-0.035554,-0.014801,-0.24552,0.093538
-0.14054,0.073396,-0.03006,-0.14298,-0.096895,0.014496,-0.1564,0.17655
0.022126,-0.32853,0.14664,-0.12802,-0.11429,0.11765,0.28946,0.11673
0.0795,-0.050813,-0.082551,0.013886,-0.049287,0.070954,0.34073,0.082856
0.13993,0.10575,-0.13382,0.04715,-0.017548,0.016938,0.21073,0.076753
0.11246,-0.01236,-0.052644,0.19455,0.073091,-0.06424,0.036774,-0.027008
0.024262,-0.17655,0.084077,0.2208,0.1442,-0.13169,-0.83665,-0.14084
0.025788,-0.48783,0.14359,-0.26993,0.1503,-0.083467,-0.30991,-0.12772
0.083467,-0.32639,0.092317,-0.2977,0.036164,0.055695,0.59312,-0.016327
0.10605,-0.19638,-0.1268,0.046845,0.062104,0.061189,0.51347,-0.0795
0.050507,-0.048371,-0.095979,0.033112,0.11429,-0.036164,-0.0032044,-0.037385
-0.14206,0.18265,-0.089265,-0.020294,0.098116,-0.083467,-1.1574,-0.016938
-0.12314,0.065461,-0.06302,0.0044251,-0.0041199,0.010224,-0.24277,0.10758
-0.16495,-0.0074769,-0.13535,-0.22354,-0.069429,0.051423,0.25193,0.078279
-0.17441,-0.079805,-0.15122,-0.22293,-0.10239,0.06302,0.17655,0.045624
-0.24308,-0.005951,-0.1387,-0.19272,-0.10727,0.14115,0.50645,0.10971
-0.29374,0.35142,-0.14755,-0.10636,-0.030671,0.076753,0.36637,0.065156
-0.1738,0.54612,-0.076448,-0.103,0.019074,-0.048371,0.17105,0.1442
0.15702,0.031891,-0.030976,-0.38193,0.0019837,-0.052338,-0.17319,0.10178
0.35294,-0.52506,-0.14847,-0.08835,-0.059358,0.0206,-0.19608,-0.044404
0.15793,-0.36027,-0.018769,0.40421,-0.00076295,-0.0077821,-0.10422,-0.14633
0.011139,0.04593,0.026093,-0.016938,0.027619,0.033112,-0.017548,0.0074769
-0.029145,0.024262,0.047456,-0.80552,0.039826,0.071565,0.15091,0.060578
0.02121,-0.21347,0.069734,0.19028,0.035554,-0.031281,0.0010681,-0.032502
-0.030671,-0.21683,-0.0080873,0.61601,-0.062104,0.018158,0.033417,-0.035859
-0.023346,0.1091,-0.0047303,0.2443,0.11948,-0.065156,0.024872,-0.060578
0.1268,0.12802,-0.15732,-0.24491,0.168,-0.03006,-0.002594,-0.048981
-0.04715,-0.18814,-0.063325,-0.29587,0.041657,0.067292,0.0074769,-0.061799
-0.0041199,-0.24582,-0.084688,-0.26291,-0.018463,0.011444,-0.016632,-0.043488
-0.045014,-0.040742,-0.087129,-0.17075,0.020905,-0.070344,-0.084993,-0.049287
-0.06363,0.058137,-0.057221,-0.23484,-0.002594,0.013886,0.03006,-0.093843
-0.20523,0.15793,-0.087129,-0.081331,-0.066987,0.051423,0.081331,0.00045777
-0.23941,0.063325,-0.076448,-0.070344,0.0074769,-0.0096132,0.053864,0.069429
-0.1442,0.077974,-0.12131,0.052644,-0.067292,0.038605,0.10575,0.19272
-0.059358,0.0013733,-0.16159,-0.11734,-0.012665,-0.0028992,0.017548,0.094148
-0.10941,0.015717,-0.21836,-0.1268,-0.037079,0.027314,0.031891,0.11917
-0.24643,0.23423,-0.10056,-0.20523,-0.041962,-0.027619,0.024262,0.093843
0.074311,-0.25406,0.28763,0.14359,-0.024872,0.013886,0.0086976,0.057527
0.32822,-0.41459,-0.0013733,0.29831,-0.015717,0.048066,0.009308,-0.0047303
0.28733,-0.16403,-0.061799,-0.16556,0.13016,-0.071565,-0.095064,-0.19059
0.26596,-0.059358,-0.035554,-0.2092,0.11826,-0.053254,-0.075837,-0.15702
-0.10941,0.28458,-0.15579,-0.16983,0.073701,0.023346,0.020905,-0.093843
-0.11704,0.065461,-0.033722,-0.086824,0.037079,0.065156,0.1091,-0.036469
-0.027619,-0.090486,0.066377,0.0028992,-0.076753,0.073091,0.062409,0.055085
0.075532,-0.392,-0.073396,-0.0050355,-0.030976,0.024567,0.047761,0.012665
0.0099184,-0.21866,-0.039826,0.0071717,0.043183,-0.027314,-0.14481,-0.039216
-0.13596,0.0795,-0.19883,-0.32181,0.074311,-0.086213,-0.34775,-0.058137
-0.21073,0.44358,-0.17105,-0.36271,0.043793,-0.053864,0.076448,0.0383
-0.16709,0.27481,-0.0035096,-0.17868,-0.04593,0.05478,0.17502,0.14908
-0.024872,-0.10178,-0.058442,-0.19303,-0.059358,0.074311,0.059968,0.18845
-0.0795,-0.47379,-0.023957,-0.018769,-0.052644,0.034943,-0.017243,0.047761
-0.16983,0.10391,-0.1912,0.0038148,-0.050813,-0.018158,-0.10605,-0.074922
0.012055,-0.056001,0.066987,0.52903,-0.038605,-0.02884,-0.0053407,0.027619
0.095979,-0.25895,-0.02884,0.13718,-0.049592,0.042878,0.13077,0.075837
0.14633,0.05539,-0.09659,-0.46616,0.082551,0.0062562,0.079805,0.015106
0.084077,-0.061494,-0.015717,0.051728,0.069734,0.025177,0.052033,0.0795
-0.12375,-0.039826,-0.035859,-0.23423,0.0065614,0.055085,0.005951,0.048981
-0.067292,-0.38499,-0.029145,-0.045319,0.037079,0.02884,-0.041962,0.02945
-0.062715,0.0383,0.032197,-0.043488,0.11978,-0.033722,-0.0050355,-0.017243
-0.059052,-0.11643,0.030671,0.059663,0.074006,0.026703,0.017548,-0.10391
-0.11398,0.25071,-0.098116,-0.075837,-0.011444,0.037079,0.04715,-0.064546
-0.083162,0.064546,-0.16648,-0.3035,0.0056458,-0.013275,-0.020294,-0.058137
-0.17655,0.24002,-0.15885,-0.26719,-0.10391,0.072786,0.021515,0.0032044
-0.21073,0.37583,-0.18387,-0.21195,-0.11398,0.078279,0.079805,0.13169
0.037079,-0.28855,0.14542,0.030671,-0.049592,0.011444,0.08835,0.12985
0.16464,-0.43229,-0.027008,0.26261,0.0074769,-0.01297,0.027619,0.018158
0.2565,-0.26139,-0.077363,0.13962,0.14115,-0.1033,-0.14847,-0.091096
-0.012055,0.3035,-0.11063,-0.1445,0.18143,-0.0972,-0.1091,-0.085908
0.017853,0.025483,-0.2153,-0.16495,0.035248,0.0062562,0.073396,0.019684
-0.033417,0.013581,-0.12528,-0.22385,-0.055695,0.049592,0.027619,0.087739
-0.19394,0.14389,0.00015259,-0.16953,-0.043793,0.016938,-0.068208,0.0013733
-0.21347,0.2742,0.066987,-0.14908,-0.072175,0.040131,-0.00045777,0.012665
-0.12467,0.16312,0.092622,-0.15122,-0.099336,0.090791,0.1207,0.076143
-0.053864,-0.34257,-0.039216,-0.13321,-0.084688,0.082551,0.075227,0.0071717
0.19242,-0.77287,-0.032197,-0.28367,-0.097505,0.051118,-0.018463,-0.011444
0.19089,-0.48508,-0.052949,0.35508,0.053864,-0.070039,-0.10971,-0.073091
0.091707,-0.0065614,-0.01236,-0.0086976,0.21378,-0.048066,-0.050813,-0.10361
0.031586,0.11368,-0.12924,0.20737,0.20127,-0.032807,0.10819,-0.051423
-0.032807,0.068513,0.042878,0.051728,0.12314,-0.10544,0.14939,-0.082246
0.023346,-0.20005,-0.121,-0.093843,0.12619,-0.047761,0.095369,-0.12863
0.039216,-0.034638,-0.20768,-0.17472,-0.0083925,0.050202,-0.052033,-0.043183
-0.083162,0.10788,-0.15854,-0.05417,-0.040742,-0.037995,-0.33982,0.0032044
-0.15366,0.30137,-0.103,-0.17594,-0.056001,-0.019684,-0.26169,0.048981
-0.17777,0.45426,-0.10208,-0.37461,-0.11582,0.11368,0.1854,0.13596
-0.19791,0.17319,-0.11521,-0.29374,-0.20645,0.14115,0.50248,0.1564
0.0068666,-0.34745,0.020905,-0.21164,-0.20676,0.16098,0.65965,0.12314
-0.12406,-0.1622,0.0035096,0.14176,0.014801,0.010529,0.73381,0.032197
-0.15091,-0.22629,0.09659,0.15152,0.2034,-0.12284,0.23789,0.00045777
-0.056001,-0.026398,-0.020294,0.085908,0.16068,-0.10971,-1.0939,0.039826
0.018769,-0.30442,-0.055085,-0.21683,0.093233,-0.26566,-1.8508,0.075532
