-0.020294,0.069123,-0.1033,-0.090791,0.014191,0.56138,0.32517,-0.02945
-0.065461,0.12772,-0.1207,0.045319,0.034943,0.22873,0.23606,0.061494
-0.12558,0.14786,-0.14389,-0.12589,0.066377,0.1622,0.034333,0.10788
-0.15671,0.10575,-0.12833,-0.18509,0.002594,0.14542,0.1207,0.092012
-0.15,0.099947,-0.10941,-0.050813,-0.13169,0.16495,0.12253,0.094148
-0.13169,0.025177,-0.085298,0.077668,-0.14633,0.10605,0.041962,0.035859
-0.12924,-0.11002,-0.04715,-0.35477,0.018769,0.051423,0.026093,0.019379
-0.053864,-0.20859,0.00015259,0.0206,0.11398,0.050202,0.0096132,0.070649
-0.067903,-0.27604,0.0083925,-0.11063,-0.043488,0.074922,-0.00015259,0.037079
-0.029755,-0.19455,-0.051728,-0.12894,-0.070039,0.071565,0.082551,0.0383
0.044099,-0.11734,-0.0065614,0.0013733,-0.10178,0.065156,0.17929,0.0028992
0.016632,0.070039,-0.0068666,-0.043183,-0.081941,0.036774,0.07248,-0.072786
-0.0096132,0.053559,0.044404,-0.22995,0.032807,0.08835,-0.22446,-0.031586
0.10178,-0.069429,-0.0062562,-0.0795,0.17838,0.168,0.034943,0.037995
0.13413,-0.090181,-0.060273,0.13748,0.11551,0.15488,0.16312,-0.020294
0.050202,-0.10086,-0.057221,-0.14084,-0.017548,0.091402,-0.17288,-0.077363
-0.023041,-0.023346,-0.10056,-0.08896,0.046235,0.13993,-0.17716,-0.023346
-0.068208,0.050507,-0.11643,-0.06302,0.16739,-0.032197,-0.0010681,0.017853
-0.087739,0.0795,-0.12985,-0.16312,0.10361,-0.19944,0.019989,-0.012055
-0.074006,0.025788,-0.11429,-0.24796,-0.062104,0.18997,0.052033,-0.011139
-0.077363,0.045319,-0.13565,-0.32181,-0.11185,-0.52537,-0.30838,0.027314
-0.058137,0.030671,-0.093233,0.41062,-0.14786,-1.0259,-0.036774,0.033417
-0.092012,0.063325,-0.10361,-0.15763,-0.020294,0.10117,0.1677,0.0206
-0.075837,0.019074,-0.038911,0.01297,-0.0013733,0.12802,0.054475,0.057832
-0.022736,-0.038911,-0.04654,0.045624,0.037995,-0.19028,-0.0032044,0.070649
-0.0047303,-0.083467,-0.019074,-0.14969,0.013275,0.35904,0.062104,0.052033
0.058442,-0.1564,0.056916,-0.16403,0.030365,0.22171,0.0047303,0.015717
0.056611,-0.17411,-0.00045777,-0.033722,0.078279,0.08957,-0.070649,-0.031891
0.043183,-0.091707,-0.0090028,-0.06424,0.036164,0.14023,0.08957,-0.032807
0.043183,-0.09659,-0.016632,-0.13993,-0.0083925,0.083162,-0.039216,-0.035554
0.051728,-0.047456,-0.06302,-0.092927,-0.010224,-0.0099184,-0.092927,-0.074617
0.025788,-0.091707,-0.02182,-0.043488,-0.009308,0.024567,0.18021,-0.087739
-0.02945,-0.069429,-0.060578,-0.034943,-0.012665,0.077363,0.17075,-0.085298
-0.081331,-0.032197,-0.084077,0.0077821,0.0099184,0.032197,-0.043793,-0.047456
-0.14603,0.034028,-0.11093,-0.090486,0.11887,-0.082551,-0.29984,-0.01236
-0.13443,0.087129,-0.11734,-0.14481,0.079805,0.00076295,-0.14542,0.045014
-0.04593,0.049287,-0.11551,-0.12558,-0.068818,0.14359,0.3743,0.063325
-0.069734,-0.025483,-0.11765,-0.14481,-0.10391,0.1207,0.17319,0.017548
-0.11551,0.048066,-0.099641,-0.018463,-0.1387,0.11582,-0.025788,0.090181
-0.12589,0.073396,-0.066072,-0.059052,0.047761,0.0090028,-0.082856,0.17288
-0.103,0.043488,-0.056916,-0.14694,0.16831,-0.17533,-0.084077,0.16403
-0.095979,0.05539,-0.063935,-0.11948,-0.0010681,-0.070039,0.086213,0.17166
-0.010529,-0.012055,-0.011444,0.016938,-0.067903,0.046235,0.10697,0.21103
0.0028992,-0.070039,0.0047303,-0.091096,0.0032044,-0.041352,0.023651,0.10697
0.044099,-0.12467,0.0041199,-0.081636,0.16129,-0.063325,-0.077363,-0.073091
0.072786,-0.17746,0.0038148,-0.019379,0.041352,0.098726,-0.025483,-0.040436
0.049287,-0.14267,-0.013886,-0.02945,-0.066072,0.11643,0.070649,-0.067292
0.01297,-0.14054,-0.034028,-0.052338,-0.0019837,0.01297,0.20188,-0.094148
-0.018769,-0.11032,-0.04715,-0.02884,0.029145,-0.057221,0.29374,-0.11307
-0.023041,-0.066072,-0.082856,-0.020294,0.016022,-0.076143,0.1912,-0.11521
-0.062715,0.0019837,-0.10605,-0.076753,0.0080873,-0.02182,-0.392,-0.09781
-0.042573,0.0056458,-0.10727,-0.0795,-0.06363,0.082246,-0.57603,-0.012055
-0.014191,-0.049592,-0.084077,0.032807,-0.14572,0.28275,0.29465,0.076753
-0.045014,0.028534,-0.12253,-0.24643,0.042878,0.25467,0.39261,0.040131
-0.05539,0.070039,-0.092012,-0.17899,0.19455,-0.067597,0.37888,0.027619
-0.061799,0.0065614,-0.078279,-0.49699,-0.0032044,-0.16098,0.097505,0.010834
-0.035859,0.023651,-0.074006,-0.41611,-0.10147,-0.26871,-0.57206,0.0071717
-0.0065614,0.042267,-0.033722,0.23667,-0.042878,0.056916,-0.6981,0.054475
-0.029755,-0.041657,-0.022736,0.39445,-0.032197,0.13962,-0.21195,0.026093
-0.017548,-0.12558,-0.026398,-0.03769,-0.036469,-0.19089,0.34134,0.045319
0.025788,-0.10056,-0.0080873,-0.20615,0.16648,-0.11185,0.27054,0.0068666
0.04654,-0.057527,0.00015259,-0.08072,0.12863,0.011444,-0.17838,-0.036774
0.031281,-0.064851,0.009308,0.00076295,-0.04654,0.065766,-0.16892,-0.05478
-0.0083925,-0.061799,-0.014801,0.071565,-0.00045777,0.26444,0.69932,0.04715
0.048066,-0.11948,-0.051118,-0.0022889,0.019379,0.28702,0.52079,0.091707
-0.0056458,-0.070039,-0.092927,-0.18143,0.042267,0.28458,0.022126,-0.0096132
-0.041657,-0.077363,-0.086519,-0.21561,-0.002594,0.22019,-0.82811,-0.083162
-0.053254,-0.05417,-0.072175,-0.10666,0.024872,-0.78599,-0.70878,0.014801
-0.084077,-0.00076295,-0.082551,-0.079805,0.30411,-1.4278,-0.1738,-0.079805
-0.12955,0.07187,-0.15457,-0.089876,0.26902,0.19516,0.21012,-0.041047
-0.12406,0.11337,-0.095979,0.06363,-0.18051,0.4622,0.29862,-0.0206
-0.12131,0.091402,-0.084382,0.12741,-0.14939,0.14786,-0.0090028,-0.044709
-0.077363,0.059663,-0.12253,-0.017548,-0.068513,0.18143,-0.034333,0.048981
-0.049287,0.015717,-0.090181,-0.22019,-0.072786,0.17624,0.18692,0.078279
0.011444,-0.082551,-0.045014,-0.13474,-0.10422,0.25803,0.27787,0.076448
0.0795,-0.12863,-0.0013733,-0.092927,-0.07187,0.18082,0.30991,0.083772
0.077363,-0.043488,-0.0086976,-0.052338,-0.0086976,0.085908,0.16098,0.042878
0.095369,-0.19944,0.019684,-0.009308,-0.020905,0.094453,-0.14633,0.0056458
0.12772,-0.12436,0.017243,-0.32578,0.0086976,-0.074617,-0.13077,-0.037079
0.050507,-0.19883,0.062715,-0.14145,0.07187,-0.64103,-0.08835,-0.048981
-0.021515,-0.18997,-0.036164,0.078889,0.13107,-0.17777,0.02121,-0.018769
-0.065766,-0.074006,-0.072786,0.016632,0.081636,0.20249,0.088045,0.019074
-0.099641,-0.043488,-0.040742,-0.07248,0.016632,0.092927,-0.12924,0.0065614
-0.073701,-0.0047303,-0.11521,-0.13931,0.0077821,0.099336,0.15518,0.053254
-0.077974,0.085603,-0.11093,-0.087434,-0.0053407,0.12375,0.48417,0.057221
-0.14603,0.13657,-0.12345,-0.059663,-0.034943,0.08957,0.3801,0.0077821
-0.16617,0.083162,-0.12894,-0.085603,-0.024262,0.022126,-0.20798,0.049897
-0.1622,0.070649,-0.12436,-0.12375,-0.035554,0.048371,-0.23728,0.065766
-0.077974,0.022126,-0.086213,-0.19547,-0.044709,0.051728,-0.29831,0.096284
0.017548,-0.032502,-0.11307,-0.23392,0.0019837,0.06363,-0.54032,0.093843
0.0041199,-0.013581,-0.044099,-0.045319,0.037079,-0.0041199,-0.25956,-0.0047303
0.0053407,-0.010834,-0.034943,-0.0065614,-0.018158,-0.047761,0.15549,-0.00015259
0.058137,-0.044404,-0.010834,-0.025177,-0.012055,-0.036164,0.2266,0.0065614
0.045014,-0.052033,0.0083925,-0.016938,0.03006,-0.019379,0.22354,-0.010529
0.013275,-0.10941,0.010529,-0.0383,0.034028,0.029145,0.2797,-0.013275
0.02945,-0.086824,0.013275,-0.078889,0.031281,0.024567,-0.044709,-0.036774
0.034028,-0.029755,-0.017853,-0.026703,0.0016785,0.030365,-0.19669,-0.072786
0.028229,-0.08072,-0.0383,0.041047,-0.047761,0.14145,0.092927,-0.053864
-0.0080873,-0.083772,-0.052033,-0.016632,0.090791,0.14389,0.11368,-0.08072
-0.094148,0.029755,-0.0795,-0.1265,0.16709,0.14267,0.057221,-0.063935
-0.08011,0.050202,-0.1088,-0.16892,-0.032807,0.13748,0.059052,-0.051423
-0.041047,0.002594,-0.13626,-0.043488,-0.02884,-0.043183,0.080415,-0.030365
-0.056611,-0.030365,-0.099641,-0.1677,-0.052949,-0.4741,-0.03769,0.0050355
-0.081025,-0.066987,-0.10422,-0.26352,-0.032502,-0.099641,-0.11795,0.059663
-0.04654,-0.082246,-0.077058,-0.027008,0.08957,-0.29068,-0.30991,0.11551
-0.00015259,-0.10086,-0.041657,0.023651,0.074617,-0.30716,-0.078279,0.15457
0.0080873,-0.13169,-0.054475,-0.019379,-0.0013733,0.19028,0.19272,0.15244
-0.039826,-0.03006,-0.065766,-0.052949,-0.024262,0.13107,0.034333,0.048981
-0.043488,0.024262,-0.046845,-0.055085,-0.031281,0.27207,0.16861,0.0080873
-0.0083925,-0.048371,-0.026398,-0.13321,-0.015412,0.29496,0.16922,0.022736
0.0028992,-0.035554,-0.034638,-0.31327,-0.017243,0.1387,0.10544,-0.0083925
0.012665,-0.044099,-0.0383,0.37186,-0.0206,0.072786,0.098421,0.019989
0.06424,-0.15793,0.07187,-0.23789,0.016632,-0.05539,-0.094148,-0.018158
0.12924,-0.2266,0.051728,-0.19089,0.056916,-0.65019,-0.38193,-0.096284
0.083467,-0.06363,-0.058137,0.025177,0.13474,-0.47379,-0.24704,-0.1799
0.011139,0.039521,-0.090486,0.12924,0.06302,0.34287,0.023346,-0.15427
-0.081025,0.060273,-0.093233,0.056001,0.023041,0.1738,0.039826,-0.076753
-0.12039,0.023651,-0.086824,-0.099641,-0.014191,0.074617,0.070649,0.016022
-0.10575,0.033417,-0.079194,-0.10697,-0.040436,0.069123,0.082246,0.10178
-0.12436,0.13169,-0.1033,-0.22141,-0.0028992,0.037385,0.2269,0.13718
-0.13138,0.082551,-0.15305,-0.16861,-0.022736,0.058747,0.17441,0.10697
-0.090791,-0.032807,-0.13352,-0.09781,-0.075227,0.050507,-0.20401,0.093843
-0.1326,0.012055,-0.11063,-0.19577,-0.039521,0.040436,-0.1146,0.056306
-0.15,0.019684,-0.064546,-0.11032,-0.034638,0.034638,0.070344,0.052033
-0.056916,-0.019379,-0.051728,-0.11734,-0.024872,0.0053407,0.38926,0.082551
-0.0068666,-0.081331,-0.010224,-0.084993,0.0206,-0.005951,0.32639,0.042267
0.016938,-0.075837,0.017853,0.057832,-0.051423,0.18845,0.19028,-0.014801
0.019989,-0.077974,0.01236,0.043793,-0.0056458,0.37613,-0.5687,-0.047761
0.051728,-0.11673,-0.0099184,-0.069734,0.14603,0.29465,-0.4271,0.017853
0.069734,-0.13199,0.0077821,-0.025177,0.091707,0.14755,0.4509,0.0096132
0.072786,-0.1268,-0.022431,0.032502,-0.018463,0.086519,0.2443,-0.029145
0.04715,-0.12619,-0.025788,-0.049592,0.059968,-0.86137,-0.37766,-0.039521
-0.0090028,-0.056001,-0.078279,-0.087129,0.11032,-0.76036,-0.70695,-0.13077
-0.034638,-0.018769,-0.08072,-0.11551,0.027619,0.51926,-0.066987,-0.057832
-0.033112,0.0041199,-0.097505,-0.1088,-0.014801,0.26078,0.31022,0.014191
-0.089265,0.10361,-0.12833,-0.13779,0.019074,-0.14298,0.17288,0.011749
-0.10452,0.12619,-0.13535,-0.17868,0.015412,-0.50309,0.17136,0.048066
-0.083772,0.096284,-0.12284,-0.32395,-0.092317,-0.40665,-0.14817,0.041352
-0.064851,0.051728,-0.10727,-0.15122,-0.064546,0.2211,0.12375,0.082856
-0.025177,-0.019684,-0.083467,-0.00015259,-0.041962,0.33249,0.27787,0.10422
0.039826,-0.16007,-0.046235,-0.015106,-0.11551,0.63066,0.051423,0.034028
0.069429,-0.19242,-0.011749,0.045319,-0.087129,0.12955,-0.15885,-0.08957
0.026703,-0.10788,-0.015717,-0.017548,0.13382,-0.43442,-0.12131,-0.079194
0.002594,-0.11673,0.024262,-0.066377,0.081331,0.13504,-0.26505,-0.035248
0.016938,-0.15671,0.055695,0.034028,-0.0019837,0.24552,-0.041657,0.019379
-0.04715,-0.054475,-0.024872,0.011749,0.035248,0.016327,0.024262,-0.076143
-0.044709,-0.045624,-0.037995,-0.01297,0.073396,-0.61753,-0.15946,-0.083162
-0.009308,-0.023957,-0.039826,-0.0028992,0.04715,-0.33494,-0.02121,-0.0096132
-0.017548,-0.029755,-0.045014,-0.1738,-0.0056458,0.22232,0.17288,-0.0083925
-0.056001,-0.0086976,-0.082856,-0.29313,0.035248,0.11795,0.10636,-0.0206
-0.13016,-0.0044251,-0.084993,-0.11856,0.0071717,0.1326,0.045624,0.05417
-0.10575,0.017853,-0.103,-0.14389,-0.14847,0.12924,0.079805,0.1445
-0.0972,0.02945,-0.11978,-0.18357,-0.055695,0.030976,0.1207,0.1912
-0.13748,0.08011,-0.12375,0.056611,-0.00076295,0.076753,0.19883,0.14633
-0.16251,0.084382,-0.13107,0.00045777,0.065461,0.049287,0.16709,0.14176
-0.11215,0.085603,-0.12222,-0.10239,0.30747,-0.017853,-0.061189,0.18173
-0.070649,0.069734,-0.095979,-0.042573,0.1915,0.06302,-0.17655,0.07187
0.012055,-0.064851,0.0019837,0.048676,-0.16892,0.1265,0.11002,-0.015412
0.033417,-0.12161,-0.021515,-0.15274,-0.077974,0.031281,0.15702,-0.072175
0.035554,-0.078889,-0.017548,-0.3212,-0.056916,0.0206,0.022126,-0.10147
0.07126,-0.14633,0.015412,-0.18357,-0.077668,0.092317,0.10147,-0.094148
0.098421,-0.15488,0.025788,0.039216,-0.028229,0.17716,0.25742,-0.10971
0.12589,-0.17441,0.040436,0.0053407,-0.013275,0.12741,0.11978,-0.12467
0.14542,-0.1323,-0.03769,0.20401,-0.058442,0.083467,-0.23026,-0.11582
0.059968,-0.09659,-0.030671,0.009308,0.022126,0.0077821,-0.052644,-0.1326
0.031586,-0.10544,-0.075227,-0.18875,0.12619,-0.20279,0.06424,-0.076143
0.0077821,-0.047761,-0.086519,-0.010529,0.13382,-0.71214,-0.39719,-0.067597
-0.073091,0.0086976,-0.121,-0.049592,0.011139,-0.27268,-0.69566,-0.014496
-0.14664,0.11368,-0.095369,-0.051118,-0.087739,0.20584,-0.13138,0.086213
-0.23453,0.14755,-0.11154,-0.08072,0.065156,0.20462,0.2858,0.11673
-0.17685,0.12253,-0.13565,-0.19303,0.19883,0.11185,0.14023,0.12863
-0.085298,0.10178,-0.094453,-0.033722,-0.13748,0.20432,0.11307,0.15305
-0.040742,0.033722,-0.11063,-0.51072,-0.19242,0.085908,0.10056,0.037079
-0.017243,-0.046235,-0.058442,-0.1384,0.0099184,-0.39261,-0.00076295,-0.043488
-0.056001,-0.022126,-0.050813,0.02884,0.049897,-0.21653,-0.00045777,-0.017243
-0.062715,-0.031586,-0.032502,0.0056458,0.0016785,0.2565,0.098116,0.073701
0.005951,-0.08011,-0.0206,0.016632,0.010529,0.12894,0.11765,0.09659
0.11154,-0.18997,0.030671,-0.010224,0.039521,0.0383,0.091707,0.041657
0.086213,-0.13779,0.013886,0.05417,-0.015412,0.0038148,0.066682,-0.041962
0.045624,-0.082551,-0.020905,-0.087739,0.035248,0.034028,0.072175,-0.012055
0.029145,-0.091402,-0.030671,-0.15122,0.14298,0.036469,-0.014191,0.016632
-0.034333,-0.029755,-0.052644,-0.19425,0.060578,0.040436,0.2501,-0.041047
-0.05478,-0.028229,-0.0795,-0.15,-0.023041,0.066377,0.35538,-0.011139
-0.07187,-0.059968,-0.076143,-0.047456,-0.028534,0.0010681,0.1146,0.017548
-0.012055,-0.11734,-0.038911,0.061799,-0.014801,-0.12161,-0.39445,0.0041199
-0.0050355,-0.1442,-0.1149,-0.0013733,0.02121,-0.18936,-0.88365,-0.057832
-0.019379,-0.1268,-0.10483,-0.0068666,0.016632,-0.0022889,-0.35843,-0.056611
-0.092317,0.065461,-0.12436,-0.095674,-0.098116,0.13291,0.16495,-0.028534
-0.1091,0.14267,-0.093538,-0.12802,-0.1091,0.13413,0.32212,0.030976
-0.06363,0.031281,-0.094759,-0.092317,-0.032807,0.083772,0.18692,0.12161
-0.018463,0.009308,-0.081025,-0.16983,0.05417,0.030976,0.24216,0.098726
-0.042573,0.048676,-0.031891,-0.018158,-0.0096132,0.040131,0.20066,0.058442
-0.039216,-0.017853,0.013886,-0.010834,-0.095369,0.059663,0.070039,0.022736
-0.02884,-0.081331,-0.015412,-0.23301,0.055085,0.11124,0.034333,0.0016785
-0.00015259,-0.084382,0.0013733,-0.079805,0.16861,0.060883,-0.15152,0.0056458
-0.0035096,-0.064851,-0.0013733,-0.088655,0.056916,0.099031,-0.2269,0.002594
0.024872,-0.070649,-0.025483,-0.47776,-0.018769,0.35447,0.054475,-0.018769
0.049592,-0.084993,-0.042573,0.093233,0.02182,-0.023651,0.12833,-0.014191
-0.045624,-0.047456,-0.060883,0.44877,0.12039,-0.74418,-0.053254,-0.053864
-0.074006,-0.020905,-0.085298,-0.13382,-0.016938,0.35752,0.056001,-0.0035096
-0.08835,-0.023957,-0.073091,-0.18143,-0.059052,0.18509,-0.10819,0.060578
-0.089265,0.032502,-0.090486,-0.16281,0.040131,-1.1098,-0.34226,0.023651
-0.081636,0.095979,-0.15061,-0.031586,-0.0083925,-0.35843,-0.0013733,0.024262
-0.030365,0.058137,-0.14298,0.16037,-0.037079,0.55009,0.19059,0.025177
-0.013581,-0.036774,-0.10239,-0.058442,0.091402,0.24155,-0.0041199,0.024262
-0.032807,-0.070039,-0.10147,-0.21225,0.074311,-0.00015259,0.033417,-0.0041199
-0.024262,-0.066987,-0.067903,-0.19425,-0.12955,-0.0068666,0.27726,-0.0022889
0.05417,-0.078889,-0.021515,-0.14511,-0.12039,0.23362,0.51438,0.025483
0.064546,-0.13382,0.070344,-0.081636,-0.069429,0.24033,0.23789,-0.055695
0.059968,-0.13565,0.014496,0.35111,-0.053254,0.095064,-0.32731,-0.13321
0.055695,-0.032807,-0.040131,-0.28153,0.078279,0.022736,-0.24125,-0.025483
0.057527,-0.033417,-0.026093,-0.56291,0.21653,-0.25284,-0.82414,0.049897
-0.025177,-0.029755,-0.00015259,0.3679,0.10056,-0.47471,-0.41398,0.032807
-0.085298,-0.0068666,-0.036469,-0.20432,0.051423,0.025177,0.34714,0.045319
-0.077668,-0.048066,-0.039826,-0.092927,-0.052949,0.25254,0.35538,0.060578
-0.075837,-0.0041199,-0.0795,-0.046235,-0.052949,0.20645,0.22873,0.04715
-0.026398,-0.02884,-0.036469,-0.041047,-0.038605,0.22232,0.19181,0.01297
-0.029145,-0.05539,-0.06424,-0.0068666,-0.014191,0.085908,-0.11582,-0.060883
-0.07126,-0.041657,-0.12772,-0.040742,0.010834,0.065766,0.12985,-0.064546
-0.04715,-0.020905,-0.1326,-0.13321,0.047761,0.057221,0.21988,0.005951
-0.091707,0.0019837,-0.13352,-0.091096,0.066377,-0.4152,-0.60319,-0.069734
-0.15366,0.014191,-0.11856,-0.059663,0.057527,-0.59648,-0.57053,-0.023651
-0.10513,0.045319,-0.10056,-0.11948,0.030365,0.084688,0.28397,0.14023
-0.091707,0.03769,-0.064546,-0.19089,-0.02121,0.17685,0.37613,0.19028
0.0032044,-0.10788,-0.034943,-0.32914,-0.079805,0.15396,0.28397,0.2031
0.06363,-0.041657,-0.0013733,-0.015412,-0.037385,0.15671,0.11093,0.1564
0.065461,0.01236,-0.022431,0.059358,0.0090028,0.091096,0.046235,0.048981
0.062104,-0.091707,0.027924,0.012055,-0.00076295,0.068208,0.026093,-0.060578
0.02182,-0.14176,-0.014191,-0.065766,-0.00045777,0.042878,-0.00076295,-0.1384
0.038911,-0.14542,0.00076295,-0.064546,0.036774,0.015106,-0.0056458,-0.18662
0.027008,-0.10422,0.018769,-0.058747,0.043183,-0.079805,-0.025483,-0.17563
0.052033,-0.056916,-0.052949,-0.048371,0.049287,-0.041352,-0.027314,-0.16281
0.037385,-0.021515,-0.079194,-0.041657,0.044404,0.039521,0.0074769,-0.16464
0.012055,-0.021515,-0.094759,-0.06424,0.034028,-0.016022,-0.035248,-0.088045
-0.016632,0.036469,-0.1387,-0.10178,0.0077821,0.014191,0.023651,0.011749
-0.12741,0.084382,-0.092622,-0.14725,-0.028229,0.15183,0.13413,0.10483
-0.17105,0.10178,-0.11307,-0.12497,-0.075227,0.18601,0.23362,0.12772
-0.17624,0.0074769,-0.11093,-0.078889,-0.074006,0.11948,0.21958,0.13107
-0.13565,0.013581,-0.094453,-0.016632,-0.048981,0.059052,0.031891,0.1561
-0.10208,0.022126,-0.098116,0.02945,0.019684,-0.13901,-0.26413,0.11398
-0.1387,-0.01297,-0.051118,-0.022736,0.082246,-0.66545,-0.45365,0.063935
-0.1564,0.024262,-0.052644,-0.21561,-0.00015259,-0.14603,0.037079,0.092622
-0.11002,0.026703,0.010529,-0.032197,-0.078889,0.25467,0.15518,0.11765
-0.016327,-0.16403,0.013275,0.0050355,-0.032807,0.14298,-0.035248,0.11246
0.023346,-0.24155,-0.077974,-0.19974,0.050507,0.087129,0.10788,0.075227
0.077668,-0.1677,0.048371,-0.12528,0.06302,0.030365,0.11154,-0.0013733
0.10208,-0.21378,0.10147,0.08957,0.0050355,0.038605,0.10208,-0.023651
0.086824,-0.12406,-0.04715,-0.060273,0.00045777,0.016938,0.12284,-0.059968
0.028229,-0.021515,-0.068208,-0.3032,0.035554,0.059358,0.093843,-0.088045
0.016022,-0.0016785,-0.088655,-0.20157,0.015717,0.099336,-0.22843,-0.041962
0.035859,0.0080873,-0.11673,-0.020905,0.10056,0.11307,-0.079805,0.017548
0.0035096,0.018463,-0.12863,0.048066,0.28794,0.2385,0.16098,-0.032807
-0.033417,0.030671,-0.15702,-0.10758,-0.032502,0.17899,0.088045,-0.082856
-0.034638,0.058442,-0.14969,-0.12192,-0.059663,-0.67155,0.14054,-0.036774
0.0068666,0.019989,-0.098421,0.0071717,-0.041047,-0.52079,-0.12192,-0.031281
0.047761,0.05417,-0.086824,0.16831,-0.10117,0.25254,-0.28977,0.019989
-0.11124,0.056611,-0.074617,-0.17685,-0.0028992,0.12314,-0.19791,0.031891
-0.076753,-0.015717,-0.032197,-0.13077,-0.011139,0.021515,-0.18906,0.06424
-0.041657,-0.057527,-0.0074769,-0.16251,-0.078279,0.0080873,-0.13352,0.03769
-0.10758,-0.05478,0.0047303,-0.0022889,-0.016327,-0.034333,-0.17716,-0.06302
-0.099336,-0.043793,0.0044251,-0.14481,0.11002,0.10605,0.29221,-0.01297
-0.023041,-0.034943,-0.00015259,-0.16068,0.077668,0.08835,0.23301,-0.022431
0.011139,-0.12772,-0.011749,-0.088655,0.021515,0.082246,0.06302,-0.09781
-0.0041199,-0.11673,-0.029755,-0.074922,-0.011444,0.025177,0.019684,-0.084382
-0.042573,-0.09781,-0.011444,-0.019379,-0.039826,-0.02121,0.063325,-0.009308
-0.041962,-0.082856,-0.034943,-0.002594,0.0080873,-0.0053407,0.13474,-0.012665
-0.061799,-0.027619,-0.095979,-0.04654,0.093538,-0.04654,0.20554,-0.012055
-0.081331,0.036164,-0.13474,-0.13657,0.092317,0.044709,0.18662,0.011139
-0.044404,0.034333,-0.072786,-0.060883,0.028229,0.044709,-0.28275,0.070039
-0.031891,0.053559,-0.1149,-0.092317,-0.05539,0.10697,-0.14389,0.1207
-0.049897,0.049897,-0.1088,-0.083467,-0.083467,0.20096,-0.012665,0.082246
-0.032502,-0.0016785,-0.11643,-0.091402,-0.091402,0.31205,0.037995,0.10788
-0.051423,0.0013733,-0.11307,0.023041,-0.089265,0.36698,0.07126,0.12833
-0.013581,-0.068208,-0.040436,0.087434,-0.032807,-0.31449,-0.18479,0.12039
0.042878,-0.11826,-0.034943,-0.083772,0.10544,-1.2465,-0.074617,0.081941
0.044099,-0.082246,-0.041657,-0.1976,0.041962,0.16739,0.22171,0.02884
0.031281,-0.095979,0.0019837,-0.32792,0.033417,0.54429,0.27573,-0.070039
0.076448,-0.15946,-0.0016785,0.28092,0.062104,0.26688,0.12436,-0.047761
0.033417,-0.099641,0.0016785,-0.20737,0.089876,-0.31724,-0.30838,-0.10117
0.058137,-0.072175,-0.0090028,-0.10361,-0.057527,-0.63005,-0.12589,-0.13596
0.027008,-0.023957,-0.027619,-0.048371,-0.037079,0.3389,-0.12375,-0.13413
-0.039826,-0.027619,-0.04654,-0.048981,0.026093,0.30808,0.048981,-0.098116
-0.074617,0.010224,-0.066987,-0.052644,-0.002594,0.13748,0.28672,-0.011444
-0.077974,0.01236,-0.072786,-0.070344,0.0019837,0.067292,0.31083,0.0071717
-0.056916,-0.064546,-0.082551,-0.15518,0.051728,-0.46799,0.067903,0.015106
-0.067292,-0.1268,-0.062104,-0.10788,0.12802,-0.49424,-0.262,0.04715
-0.066682,-0.016022,-0.11978,-0.11185,0.019684,0.3566,-0.25071,0.045319
-0.088045,0.077974,-0.13321,-0.091707,-0.069734,0.26688,0.12222,0.090181
-0.073091,0.12467,-0.12467,0.041962,-0.11154,0.23972,0.38285,0.15061
-0.071565,0.074311,-0.078584,-0.14115,-0.038911,0.00076295,0.070649,0.15732
-0.090791,-0.0028992,-0.020294,-0.15549,0.019684,-0.092012,-0.52537,0.075532
-0.087129,0.044099,-0.11276,-0.087129,0.025483,0.035554,-0.6038,-0.035554
-0.033112,0.0099184,-0.016938,-0.0068666,0.018158,-0.023346,0.2153,0.09659
0.0099184,-0.13779,0.027314,-0.017548,0.019379,0.11398,0.23087,0.034028
0.0028992,-0.15824,-0.0013733,-0.075837,0.036164,0.24949,0.23575,0.030365
-0.043183,-0.095369,0.010834,-0.066987,0.0080873,0.15427,0.18875,0.034028
0.014191,-0.073701,0.019989,-0.21103,0.052949,0.064546,0.03006,0.0053407
0.07187,-0.18662,-0.042573,-0.18021,0.029145,0.060273,-0.073396,-0.048371
0.037385,-0.1268,-0.082246,-0.072786,0.0035096,-0.15244,-0.10361,-0.13199
0.014191,-0.08957,-0.054475,0.21256,0.032807,-0.59953,-0.017243,-0.13687
0.019379,-0.15213,-0.074922,-0.050202,0.011749,-0.099947,0.13687,-0.043183
-0.020905,0.035248,-0.12039,-0.12161,0.04593,0.20584,0.32975,-0.035554
-0.032807,0.084688,-0.096895,-0.081331,0.029145,0.17563,0.29374,0.015106
-0.05539,0.094453,-0.10147,-0.039216,0.030976,0.048371,-0.12161,0.065766
0.045624,0.085298,-0.12314,-0.082856,0.055085,-0.16892,-0.11002,0.074006
0.034943,0.12375,-0.10147,-0.11673,-0.012055,-0.023346,0.10788,0.046845
-0.022431,0.059663,-0.055695,-0.087129,-0.07126,0.048066,-0.15854,-0.060578
-0.052033,-0.040131,-0.0795,-0.085298,-0.04593,-0.062409,-0.83207,-0.087739
-0.11063,-0.022126,-0.059052,-0.11704,-0.0206,-0.0090028,-0.0047303,-0.00045777
-0.12802,-0.058442,-0.019989,-0.15183,0.010834,0.031281,0.29892,0.047761
-0.098421,-0.11826,0.02182,-0.1677,-0.018463,0.082246,-0.071565,-0.024567
-0.091096,-0.12955,0.025483,0.22812,-0.060883,0.17411,0.11765,0.014801
-0.12314,-0.14084,0.015412,-0.11521,0.050507,0.054475,0.1912,0.038911
-0.041352,-0.15793,0.015717,-0.18814,-0.023041,0.12955,0.075227,0.065766
-0.0080873,-0.11368,-0.0083925,-0.11887,0.0206,0.24735,0.22812,0.023957
0.042878,-0.057832,-0.093233,0.064851,0.08957,0.086519,0.027314,-0.026703
0.059052,0.035554,-0.11521,-0.036164,0.077974,-0.0038148,-0.06363,-0.042878
0.014801,0.06363,-0.1088,-0.011139,0.027924,0.041657,0.16831,0.0013733
-0.08896,0.070344,-0.13962,-0.14267,-0.016632,-0.35172,-0.2269,0.022736
-0.059052,-0.011444,-0.099336,-0.025483,0.0038148,-0.63798,-0.50309,0.072175
-0.069429,-0.0035096,-0.08896,-0.15305,-0.015412,0.036164,0.061494,0.10208
-0.041352,-0.037385,-0.099336,-0.40635,0.0099184,0.20951,0.4033,0.14328
0.010529,-0.016022,-0.1033,-0.11063,0.043183,0.14817,0.21958,0.16281
0.020294,0.0044251,-0.046845,0.103,-0.026703,0.052338,0.016022,0.02945
0.0038148,0.025483,-0.083467,0.018463,-0.060883,0.0071717,-0.23972,-0.065461
-0.066072,0.057527,-0.036164,-0.14786,0.0086976,0.042267,0.1146,-0.0090028
-0.0022889,-0.042573,0.019989,-0.07126,0.066682,0.081025,0.22507,0.0050355
0.11795,-0.14298,0.02945,0.050202,0.038911,0.052644,-0.052033,-0.02121
0.08957,-0.13565,-0.0086976,-0.64073,-0.013275,-0.0086976,-0.20218,-0.072175
0.053559,-0.19669,0.095369,0.4625,0.034943,-0.044404,-0.052033,-0.14847
-0.016327,-0.24155,0.014191,0.2977,0.051118,-0.050202,-0.043488,-0.12833
-0.030976,-0.20615,-0.07126,-0.067292,-0.038911,0.030976,-0.12772,-0.084382
-0.12345,0.081331,-0.083467,-0.2034,0.07187,0.11093,0.005951,-0.059663
-0.16037,0.13657,-0.14359,-0.21103,0.070344,0.016022,0.064546,0.0065614
-0.17502,0.11765,-0.1268,-0.18692,-0.031586,-0.016022,0.040436,0.10971
-0.15457,0.13016,-0.14725,-0.15671,0.0032044,0.074922,0.15885,0.21592
-0.13138,0.061189,-0.12161,-0.13748,-0.039826,0.13962,0.21592,0.21927
-0.10391,0.044099,-0.10483,-0.078889,-0.03769,-0.14145,0.052949,0.15915
-0.073091,0.061189,-0.08957,-0.016632,0.027619,-0.44968,-0.13565,0.121
0.011749,-0.010834,-0.039826,0.15,0.0010681,0.15122,0.033112,0.070649
0.070344,-0.03769,-0.042878,0.11826,-0.009308,0.22324,0.11368,-0.017548
0.0053407,-0.042267,-0.059358,-0.16922,0.026703,0.027314,0.0041199,-0.065766
0.060273,-0.1854,-0.00045777,-0.17685,-0.051118,0.022736,-0.030365,-0.027008
0.059052,-0.20645,0.002594,-0.10575,-0.14054,-0.08072,0.13779,-0.083162
0.016632,-0.1619,0.0074769,-0.14542,-0.072786,-0.069123,0.21286,-0.12009
-0.014496,-0.12284,-0.0053407,-0.10086,-0.00015259,0.027924,0.012665,-0.0795
0.0065614,-0.061494,-0.030671,-0.082856,0.032807,0.14328,-0.14694,-0.070039
0.014801,-0.052644,-0.021515,-0.075227,0.20859,0.25284,-0.075227,-0.12039
0.010529,-0.05539,-0.049897,-0.075227,0.34104,0.12863,0.16129,-0.093538
-0.0050355,-0.033417,-0.043793,0.045319,-0.057832,0.22934,0.121,-0.020905
-0.041962,0.014496,-0.10941,0.049592,-0.084688,0.1912,-0.25772,-0.027008
-0.053254,0.04593,-0.14389,-0.041047,0.04715,0.040131,-0.45487,0.044099
-0.02884,0.026703,-0.11704,-0.13504,0.068208,-0.51652,-0.17929,0.1146
-0.10208,0.044404,-0.11246,-0.27695,0.052033,-1.1989,0.07187,0.041352
-0.11795,0.095979,-0.10422,-0.20005,-0.027008,-0.034943,0.14786,0.073396
-0.098421,0.060578,-0.08072,0.14603,-0.10361,0.41184,0.21286,0.1561
-0.08011,0.039521,-0.074006,-0.215,-0.055085,0.13321,0.15732,0.090486
-0.014496,-0.040436,-0.043793,-0.072786,-0.042573,0.14664,-0.10147,0.053254
0.055695,-0.10025,-0.033112,-0.086824,-0.099947,0.11276,-0.18723,0.060273
0.08011,-0.15579,-0.0044251,-0.1033,-0.079805,0.11154,0.14328,0.063325
0.049897,-0.16739,0.0041199,-0.083467,0.053864,0.085603,0.11856,0.013581
0.043488,-0.1384,0.0016785,-0.027619,0.1149,0.069123,0.0038148,-0.032502
0.018769,-0.07248,-0.024262,-0.049287,0.081941,-0.013275,-0.032502,-0.12253
0.013886,-0.068208,-0.033112,0.00076295,0.025788,-0.019074,-0.020294,-0.12619
0.015717,-0.057527,0.012665,-0.090791,-0.10941,0.080415,0.24949,-0.070954
0.049897,-0.026398,-0.040742,-0.13138,-0.098421,0.051728,0.30045,-0.014496
0.0099184,-0.088045,-0.02884,-0.009308,0.15122,0.05478,0.27939,0.018769
-0.075837,-0.10788,-0.098421,-0.06363,0.34348,0.10483,0.11307,0.019379
-0.091402,0.017548,-0.13993,-0.095369,0.037385,0.041047,-0.97642,0.024872
-0.081025,0.019074,-0.13657,-0.12985,-0.067903,-0.095674,-0.50095,0.035554
-0.081025,0.072175,-0.16648,-0.054475,0.053559,-0.4506,0.019989,0.0086976
-0.092317,0.13046,-0.091096,-0.045319,0.060273,-0.24308,-0.17472,0.036774
-0.13443,0.099947,-0.10483,-0.087129,-0.022126,0.31571,0.4448,0.043488
-0.10971,0.035859,-0.06424,-0.064851,-0.12741,0.59495,0.38163,0.04715
-0.036774,-0.092317,-0.014801,-0.23026,-0.14176,0.30777,0.28672,0.074311
-0.037385,-0.036164,0.016022,-0.28367,-0.058747,0.13413,0.33707,0.044099
-0.0022889,-0.14633,-0.002594,-0.041657,-0.055085,0.035554,0.21653,0.0019837
-0.025177,-0.10178,0.0019837,0.027924,0.027924,-0.90349,0.034028,-0.014496
0.013581,-0.11002,-0.01236,-0.026093,0.12711,-1.1165,-0.68589,-0.027619
0.02884,-0.083467,-0.021515,-0.019074,0.039521,0.31662,-0.73381,-0.0383
0.013275,-0.066987,-0.012665,-0.12161,-0.019684,0.40513,0.1976,-0.033112
-0.045014,-0.054475,-0.027619,-0.045014,0.0019837,0.15976,-0.036774,-0.036469
-0.039521,-0.050202,-0.055085,0.24247,0.036774,0.22782,0.074311,0.023651
-0.073701,0.026703,-0.10239,-0.19791,0.095979,0.17197,0.30961,0.036164
-0.079194,0.043488,-0.12497,-0.12558,-0.0022889,0.14328,0.093538,0.0206
-0.082856,0.002594,-0.103,-0.13077,-0.039521,0.15488,0.14633,0.074617
-0.053559,-0.069429,-0.10269,-0.11368,-0.054475,0.0028992,-0.066682,0.096284
-0.014191,0.002594,-0.14694,-0.1207,-0.0083925,-0.57877,-0.3505,0.07126
-0.039216,0.0795,-0.11551,-0.10758,0.0035096,-0.18265,0.19303,0.019684
-0.065461,0.058747,-0.078279,-0.044404,-0.036774,0.24613,0.36667,0.044099
-0.012055,-0.0053407,-0.048676,-0.014191,-0.033112,0.15702,0.17746,0.073701
-0.0028992,-0.017548,-0.036774,0.0035096,-0.017243,0.11063,-0.077058,0.02121
0.0071717,-0.060273,0.0016785,-0.039216,-0.00076295,0.048676,-0.27604,0.025788
0.0028992,-0.10971,0.038911,-0.14572,0.099336,0.0062562,-0.061799,0.011444
0.010834,-0.12894,0.013275,-0.2855,0.11643,0.023041,0.017243,-0.039521
0.049897,-0.16281,-0.0038148,-0.10239,0.070344,0.014496,0.041047,-0.065461
0.058137,-0.14878,-0.040131,-0.0068666,-0.023651,0.011444,0.089265,-0.058137
0.013581,-0.11185,-0.056916,-0.073701,-0.049287,0.077058,0.065156,-0.068208
-0.0028992,-0.030365,-0.067292,0.14694,0.0010681,0.11185,0.20493,-0.028534
0.0038148,0.00045777,-0.066682,-0.056611,0.053559,0.095064,0.035248,0.047456
-0.033417,0.0077821,-0.070649,-0.11246,0.070649,0.11368,-0.20523,-0.0074769
-0.052949,-0.043488,-0.056306,-0.030365,-0.0047303,0.12985,-0.20066,-0.071565
-0.10208,0.032502,-0.16495,-0.14115,0.0016785,-0.085603,0.017548,-0.047456
-0.11368,0.04593,-0.11154,-0.14908,0.0065614,-0.025788,0.16312,0.0038148
-0.12345,0.035248,-0.084077,-0.16068,0.028229,-0.19821,0.15305,0.053864
-0.070039,0.04715,-0.10971,-0.085603,-0.056916,-0.66056,0.077363,0.10239
-0.054475,0.10575,-0.095979,-0.10727,-0.066072,0.036774,0.24613,0.083772
-0.044404,0.032502,-0.058442,-0.12467,-0.0096132,0.27359,0.012055,0.043488
-0.011444,0.0056458,-0.030976,-0.069123,-0.051118,0.21744,-0.37461,0.034943
-0.060578,-0.0038148,-0.0019837,0.02945,-0.08072,0.13779,-0.28428,0.056306
0.0047303,-0.12894,0.057527,0.16587,0.075532,0.033112,-0.20432,0.069734
0.091707,-0.30594,0.070954,-0.12375,0.15915,0.01297,0.045014,0.055695
0.103,-0.29587,-0.032807,-0.22995,0.060578,-0.28092,0.027008,-0.029145
0.051423,-0.10666,-0.050507,0.12924,0.086213,-0.43931,0.031891,-0.103
0.0047303,-0.056001,-0.022431,-0.18509,0.061799,0.20432,0.27604,-0.086824
-0.030671,-0.022126,-0.075227,-0.069734,-0.010529,0.24369,0.21469,-0.059052
0.027314,-0.04654,-0.085908,-0.057221,0.059052,0.071565,0.10544,-0.069123
0.031281,0.018463,-0.094759,0.066987,0.05417,0.26566,0.14206,-0.071565
-0.0047303,0.058442,-0.13657,-0.10483,-0.07126,0.22934,0.14633,-0.059663
-0.0096132,0.087739,-0.14267,-0.41825,-0.085908,0.12802,-0.13474,-0.037079
-0.070039,0.087129,-0.1265,-0.21317,-0.032807,0.18723,-0.18784,0.02121
-0.031891,-0.016938,-0.09659,-0.05478,-0.041962,-0.38529,-0.41733,0.045624
-0.056001,-0.020905,-0.062409,0.012665,-0.059663,-1.2511,-0.23697,0.043183
-0.11765,-0.049897,-0.012665,-0.11307,-0.039216,-0.1268,0.10697,0.12192
-0.16556,-0.044099,-0.046845,-0.05539,0.033417,0.38468,0.080415,0.11978
-0.16892,0.11978,-0.038911,-0.030671,0.02121,0.32853,0.0041199,0.05417
-0.19791,0.037385,-0.017548,-0.092927,-0.043183,0.41703,0.014801,0.086213
-0.13565,-0.14847,-0.026398,-0.052949,0.032807,-0.0041199,0.090486,0.07126
-0.040742,-0.17868,0.022736,-0.061189,0.15854,-0.023346,0.11002,0.024872
-0.00076295,-0.1146,-0.010834,0.052949,0.15183,0.018158,0.11093,0.0010681
0.014191,0.0044251,-0.048066,0.067292,0.0795,-0.035859,0.06302,0.036774
0.13657,-0.027619,-0.04593,-0.14145,0.031891,0.050202,-0.0083925,0.044099
0.14908,-0.12009,-0.03006,0.0206,-0.10147,0.10178,0.015106,0.0035096
0.029755,-0.074617,-0.074617,-0.0074769,-0.048676,0.064546,0.1561,-0.027314
-0.041352,0.074617,-0.12284,-0.11948,0.027924,0.022431,0.16403,0.0099184
-0.033417,0.045319,-0.098421,-0.13596,-0.0083925,-0.017243,-0.020294,0.063325
-0.030671,-0.0096132,-0.11429,-0.2089,-0.024872,-0.012055,-0.022736,-0.031891
-0.07126,0.042267,-0.13169,-0.58,-0.02884,0.023041,0.028229,-0.023346
-0.092317,0.025177,-0.086824,0.52262,-0.033722,0.030671,0.094148,0.024262
-0.04593,-0.013886,-0.092927,0.39475,-0.014191,-0.025483,0.023957,0.056001
-0.034943,0.010529,-0.072786,-0.52049,-0.076753,0.019074,-0.075227,0.052338
0.00076295,-0.15366,0.027619,-0.30014,-0.067292,0.074311,-0.036469,-0.030671
-0.02884,-0.075532,-0.01297,-0.24765,-0.091707,0.08072,0.16434,-0.066987
-0.034638,-0.06363,-0.023041,-0.081331,-0.037079,-0.10361,0.22293,0.012055
0.011749,-0.12192,-0.0065614,0.21592,0.055695,0.0083925,0.24338,0.031281
0.018158,-0.121,0.039826,0.037995,0.1265,-0.005951,-0.2681,-0.014496
0.085603,-0.17411,0.011444,-0.08896,0.42679,-0.04715,-0.2678,-0.026398
0.095979,-0.18814,0.044099,0.066072,0.21439,0.052338,-0.036469,-0.06363
0.087434,-0.084688,-0.091402,-0.10086,-0.030671,-0.17014,-0.80583,-0.18601
0.0077821,0.0077821,-0.13718,-0.24552,-0.089876,-0.10147,-0.50126,-0.14389
-0.023346,0.053254,-0.10666,-0.2092,-0.04715,0.074922,0.15824,-0.05539
-0.0383,0.04715,-0.11673,0.021515,0.063935,0.19211,0.31998,-0.00015259
-0.089265,0.014191,-0.11215,-0.005951,0.0010681,0.085603,0.10361,-0.061494
-0.14755,0.1033,-0.1323,-0.19883,-0.14023,0.095064,0.18296,0.042267
-0.12375,0.092622,-0.11032,-0.17502,-0.061799,0.11978,0.16312,0.168
-0.042878,0.036469,-0.10727,-0.081636,-0.0032044,0.042267,-0.0044251,0.16617
-0.049592,0.032197,-0.070649,-0.081636,0.0074769,-0.3093,0.051118,0.07248
-0.06363,-0.013886,-0.031891,-0.068513,-0.035859,0.03006,0.087434,0.039216
-0.070954,-0.038605,-0.014191,-0.060578,-0.06363,0.3801,0.2208,0.079805
-0.069429,-0.08072,-0.00045777,-0.025177,-0.023346,0.15305,0.14115,0.065461
-0.052644,-0.10452,0.022126,-0.01236,0.037995,-0.39902,-0.17624,0.02121
-0.017243,-0.098116,-0.013886,-0.042878,0.10605,-1.3454,-0.18692,0.002594
0.025788,-0.081636,-0.042573,-0.072175,0.027619,-0.043793,0.44907,0.019989
0.10697,-0.12161,-0.02884,-0.099947,0.0010681,0.55619,0.34104,0.015717
0.082246,-0.09659,-0.030365,-0.040131,0.0035096,0.17136,-0.10636,-0.026398
0.00045777,-0.074922,-0.042267,-0.030671,-0.013581,0.1976,-0.40726,-0.12863
-0.074922,-0.0096132,-0.02182,0.033417,-0.002594,0.051423,-0.75578,-0.085908
-0.11948,0.014191,-0.077974,-0.00076295,0.036164,0.0028992,-0.088045,0.0065614
-0.1857,0.053559,-0.1445,-0.067597,0.056001,0.057221,0.36667,0.070344
-0.13626,0.044404,-0.12436,-0.26841,0.043488,0.044099,0.19181,0.088655
-0.095064,0.022126,-0.12314,-0.28702,0.0019837,0.0795,0.13596,0.13016
-0.055695,0.019989,-0.10697,-0.12284,-0.093538,0.082551,0.25437,0.11429
-0.052949,0.040742,-0.086213,0.1857,-0.06302,0.044404,0.34134,0.090181
-0.066682,0.031891,-0.061799,-0.22232,0.04593,0.019989,0.19669,0.036164
-0.023651,-0.024872,-0.039826,-0.21012,-0.0013733,0.12131,0.070039,0.097505
0.009308,-0.0080873,-0.041047,-0.070344,0.019989,0.2034,-0.23301,0.14023
0.011749,-0.044404,-0.0096132,-0.055695,-0.081941,0.26535,-0.48783,-0.012665
0.02182,-0.093843,0.0032044,0.0016785,-0.121,0.057221,0.034028,-0.067597
0.043488,-0.12894,0.009308,-0.051118,0.07248,-0.38773,0.15946,-0.081941
0.070039,-0.15152,-0.0053407,-0.085908,0.060578,-0.027314,0.14878,-0.077363
0.055695,-0.16495,-0.032197,-0.10056,0.10788,0.09781,-0.17716,-0.12528
0.08072,-0.21378,0.0013733,0.12924,0.12772,-0.040436,-0.099947,-0.085603
0.037385,-0.1265,-0.055695,-0.0071717,0.046235,-0.054475,0.11612,-0.056611
0.069734,-0.050202,-0.12131,-0.15976,0.08011,-0.0047303,0.22507,-0.095674
0.023346,0.012055,-0.12161,-0.13596,0.14389,-0.011139,0.17838,-0.031586
-0.043488,0.07187,-0.12528,-0.12863,-0.023651,-0.24125,-0.49882,-0.010529
-0.055695,0.040131,-0.083467,0.025788,-0.087129,-0.27359,-0.67338,-0.034333
-0.11063,0.014191,-0.032807,0.033417,-0.048981,0.070649,0.002594,-0.016938
-0.15366,-0.014801,-0.092012,-0.019074,-0.051423,0.31571,0.26658,0.033722
-0.13779,0.077668,-0.12284,-0.20798,0.027008,0.25986,0.22507,0.11063
-0.061189,0.12345,-0.095369,-0.39994,-0.024262,0.27634,0.1442,0.093843
0.0047303,0.077363,-0.051728,0.29465,-0.12558,0.30259,0.10025,0.066682
0.0099184,0.0062562,-0.029755,-0.14054,-0.049287,-0.15824,-0.025177,0.017548
0.058442,-0.084993,-0.0028992,-0.1387,0.037995,-1.147,-0.057221,-0.026398
0.05539,-0.17807,0.010529,-0.094453,0.031891,-0.23148,-0.13443,-0.0206
0.063935,-0.27604,0.049897,0.04593,0.02182,0.5034,-0.015717,-0.07126
-0.04654,-0.15488,-0.035554,-0.039216,0.0056458,0.24155,0.17441,-0.10849
-0.092927,-0.11673,-0.028229,-0.076448,-0.0086976,0.15366,0.10178,-0.011444
0.027924,-0.11093,-0.073396,-0.11307,0.041962,-0.38712,-0.16648,0.054475
0.037385,0.014191,-0.073396,-0.14847,0.12314,-0.43992,-0.067597,0.056001
-0.048371,0.087129,-0.076753,-0.13107,0.062104,0.29404,0.15549,0.020905
-0.11551,0.069123,-0.10941,-0.095369,0.033112,0.36881,0.066072,0.024872
-0.087129,-0.011749,-0.058137,-0.20005,0.023957,0.18204,0.1384,0.015106
-0.08072,-0.03769,-0.11368,0.35569,-0.016327,-0.017243,0.1503,0.0795
-0.12436,0.074006,-0.14664,-0.28519,-0.060883,0.014191,0.096284,0.10666
-0.12314,0.11215,-0.12161,-0.24552,-0.10544,0.0038148,0.059358,0.15488
-0.095369,0.036164,-0.084077,-0.08072,0.034028,-0.035859,-0.084993,0.17288
-0.10391,-0.012055,-0.023651,-0.025483,0.052338,0.023041,-0.17716,0.10269
-0.045014,-0.072786,0.0065614,0.014496,-0.032197,-0.0028992,-0.21958,0.088045
-0.010529,-0.11856,0.0099184,0.1323,-0.033112,0.031281,0.019379,0.019074
-0.00076295,-0.034638,-0.0206,0.065766,0.021515,0.046235,0.063935,-0.075837
-0.010224,-0.016022,-0.02182,-0.11368,0.031281,0.030365,0.072786,-0.054475
0.027314,-0.057832,-0.028229,-0.07248,0.0032044,0.051118,0.092622,-0.038605
0.07187,-0.14206,-0.019684,-0.059663,0.011444,0.015412,0.079194,-0.0383
0.053559,-0.12558,-0.020905,-0.29831,0.032807,-0.0035096,0.13199,-0.11429
0.030365,-0.11032,-0.036774,-0.29007,0.067292,-0.034333,0.084382,-0.14176
0.039521,-0.1146,-0.08896,-0.020294,0.056916,-0.037385,-0.12039,-0.16434
-0.0019837,-0.026398,-0.10727,-0.0074769,0.039521,-0.043183,-0.26963,-0.1207
-0.047761,0.027619,-0.11673,-0.020905,-0.035554,-0.0077821,-0.11124,-0.092927
-0.073701,0.094759,-0.12711,-0.11185,-0.089876,0.083162,0.17502,0.019989
-0.11246,0.1091,-0.12039,-0.15854,-0.062715,0.073701,0.13596,0.10758
-0.10575,0.035554,-0.072786,0.038605,-0.016938,0.10239,-0.086824,0.14633
-0.094453,-0.042573,-0.099336,-0.059358,-0.035248,0.13016,-0.11185,0.16129
-0.047761,-0.019684,-0.084077,-0.22904,0.0032044,0.016632,0.033417,0.14206
-0.031586,-0.016327,-0.035859,-0.11856,0.12009,-0.024262,-0.073091,0.086824
-0.036774,-0.037995,0.0013733,-0.069429,0.011749,0.18204,0.094148,0.083467
0.050202,-0.1268,0.038911,0.063935,-0.051423,-0.48692,0.22751,0.093538
0.081331,-0.092317,-0.0044251,-0.08072,0.05539,-0.48753,0.25986,0.0032044
0.10544,-0.076143,-0.0086976,-0.12558,0.094453,0.22446,0.43198,-0.08957
0.076753,-0.083772,-0.027008,-0.009308,0.00045777,0.21378,-0.26932,-0.098116
0.0099184,-0.074006,-0.029755,0.011444,-0.037079,0.23148,-0.92912,-0.10239
0.0038148,-0.10361,-0.042267,-0.055085,0.078584,0.28611,-0.04715,-0.055085
-0.05539,-0.043488,-0.056306,0.0086976,0.039826,0.19242,0.215,-0.11307
-0.04654,-0.098116,-0.061799,-0.04715,-0.063325,-0.28855,0.41978,-0.0972
-0.037079,-0.10178,-0.11948,-0.13596,-0.081025,-0.55222,0.24949,-0.029755
-0.038605,-0.062104,-0.13779,-0.15671,0.068513,-0.2623,-0.57786,-0.040742
-0.084993,0.12711,-0.10758,-0.12528,0.18051,-0.4094,-0.67247,-0.025788
-0.13687,0.08011,-0.13321,-0.11643,0.24796,0.13504,0.22599,0.056001
-0.13565,0.063325,-0.10147,-0.11765,0.076753,0.28153,0.28855,0.12253
-0.14084,0.077668,-0.084993,-0.091402,-0.18235,0.20157,0.2031,0.14298
-0.12833,0.023346,-0.04715,-0.092927,-0.10361,0.11246,0.11063,0.11093
-0.0972,-0.010834,-0.037995,-0.075837,-0.0795,0.092927,0.034333,0.10452
-0.0068666,-0.074617,-0.010224,-0.048371,-0.073091,0.14542,0.063325,0.10636
0.030976,-0.12467,0.029755,0.017853,-0.089876,0.15763,0.009308,0.046845
0.075227,-0.11337,0.0062562,-0.06302,0.02121,0.074617,0.0090028,0.034943
0.08011,-0.10452,-0.0062562,-0.11307,0.063935,0.062104,0.1207,-0.012665
0.05417,-0.071565,-0.016632,-0.13535,-0.014801,0.14694,0.20737,-0.013581
0.036164,-0.062409,-0.028229,-0.067292,-0.025177,0.15915,0.065766,-0.0056458
0.0047303,-0.04654,-0.065156,-0.014496,-0.039826,-0.01297,-0.11063,-0.038911
0.00045777,-0.05417,-0.057221,-0.13535,-0.0041199,-0.39048,-0.022126,-0.067597
0.0056458,-0.034638,-0.090181,-0.12161,0.10086,-0.7039,0.044404,-0.068818
-0.013275,0.01236,-0.10483,0.077058,0.071565,0.15091,0.027314,-0.041657
-0.045624,0.026093,-0.12833,0.071565,0.03006,0.28183,-0.37095,-0.055085
-0.056611,0.074006,-0.14725,-0.13687,-0.012665,0.11948,0.077974,0.0068666
-0.081331,0.022126,-0.050813,-0.33921,-0.025788,0.10544,0.36454,-0.00045777
-0.095979,-0.0053407,-0.11887,-0.49027,-0.0053407,0.0071717,0.059968,-0.035859
-0.1564,0.0080873,-0.086824,0.51499,0.023957,-0.034943,-0.13169,0.031281
-0.078889,-0.078584,-0.028229,-0.050813,-0.039216,0.026398,-0.071565,0.13077
-0.0074769,-0.11246,-0.021515,-0.41459,-0.12528,0.18997,0.24796,0.16007
-0.063325,-0.07248,0.015717,-0.08835,0.035859,0.24949,0.050507,-0.018158
-0.030976,-0.052033,0.011444,0.077974,0.087739,0.20157,-0.33402,-0.020905
-0.010224,-0.016632,-0.018769,0.049592,0.039826,0.22324,0.086824,-0.025483
0.048371,0.037995,-0.046845,0.031891,0.03006,-0.0068666,-0.11734,-0.10941
0.061799,-0.04654,-0.018463,-0.027314,0.092317,-0.98802,-0.52018,-0.015106
0.033112,-0.16281,0.035859,-0.0383,0.16495,-0.97398,-0.23667,-0.025483
0.056001,-0.30198,-0.033112,-0.10178,0.019684,0.29892,0.17777,-0.00076295
0.010834,-0.24094,-0.073091,-0.1088,-0.038605,0.30167,0.23026,-0.022736
-0.052949,-0.034943,-0.11612,-0.086519,-0.014801,0.15427,0.1265,-0.0065614
-0.079194,0.04593,-0.15244,-0.11948,0.024872,0.1799,0.13107,0.063325
-0.079194,0.12406,-0.14542,-0.13169,-0.023346,0.38346,0.12192,0.054475
-0.092927,0.15763,-0.1326,-0.15061,-0.1564,0.27024,0.038911,0.088045
-0.10727,0.13596,-0.10025,-0.075532,0.0077821,-0.33921,-0.0028992,0.085298
-0.061189,0.11124,-0.11124,-0.061799,0.033417,-0.31479,0.07187,0.12772
-0.013581,-0.031891,-0.078584,-0.06302,-0.061799,0.051728,0.12436,0.11826
-0.029145,-0.025483,-0.03006,-0.090486,-0.029145,0.19821,0.12589,0.035248
-0.020294,-0.059358,-0.031891,-0.097505,-0.011444,0.41032,0.063325,0.01297
0.023041,-0.10575,0.0019837,-0.078279,-0.032807,0.2504,0.02945,0.00045777
0.086824,-0.16617,0.074006,-0.1796,-0.024872,-0.00076295,0.053864,-0.028534
0.054475,-0.10452,0.017243,-0.21622,0.042267,0.045319,0.065766,-0.093538
0.011749,-0.069429,-0.039826,0.018463,0.093538,0.077668,0.0038148,-0.11734
0.015106,-0.10147,0.012665,0.063325,0.10056,-0.051728,-0.19089,-0.10147
0.038911,-0.098421,-0.022736,0.0065614,0.085603,-0.53025,-0.2681,-0.082246
-0.049897,-0.031891,-0.081941,-0.017548,0.098116,-0.63066,-0.215,-0.08011
-0.081025,-0.005951,-0.082246,0.02945,0.035554,0.038911,0.010834,-0.030976
0.0016785,-0.12253,-0.11032,-0.089265,-0.010224,0.23606,0.087434,0.043488
0.07187,-0.062409,-0.13687,-0.21378,0.053254,0.078279,0.10666,0.0032044
-0.044404,0.016632,-0.1384,-0.089876,-0.040742,0.079805,0.1796,0.018769
-0.14389,0.061189,-0.12314,0.066987,-0.15335,0.098421,0.19028,0.10239
-0.1561,0.11429,-0.11704,-0.087739,-0.14023,0.050507,-0.013581,0.17075
-0.1387,0.15671,-0.11276,-0.27359,0.059663,-0.027008,-0.35691,0.13169
-0.10544,0.073701,-0.065156,-0.12589,0.1796,0.046235,-0.2208,0.094148
-0.052949,0.00015259,-0.016938,-0.62882,0.08835,-0.024872,-0.059052,0.00045777
0.0099184,-0.1442,0.066682,0.30686,-0.02884,-0.0047303,0.10239,-0.066682
-0.0053407,-0.17014,0.0096132,-0.056306,0.0050355,0.024262,0.18967,-0.087129
-0.0083925,-0.12467,-0.027008,-0.11307,-0.051728,0.040131,0.18967,-0.063935
0.020905,-0.15579,-0.0065614,-0.0019837,-0.092927,0.092927,0.17502,-0.103
0.0383,-0.1442,-0.013886,0.12345,-0.056611,0.070344,0.22873,-0.10117
0.030976,-0.039521,-0.030976,0.098116,0.061189,0.075837,0.17441,-0.0086976
-0.041657,-0.034638,-0.04654,-0.061189,0.087434,0.026398,-0.045624,0.067597
-0.11551,0.052644,-0.067292,-0.13199,0.024872,-0.061494,-0.39658,0.090181
-0.10391,0.063325,-0.097505,-0.10727,0.047456,0.016327,-0.1323,0.15274
-0.095674,0.043183,-0.11612,-0.10758,0.03769,-0.14908,0.0086976,0.1268
-0.047456,-0.005951,-0.12039,-0.19211,-0.041047,-0.068208,0.0053407,0.067903
-0.049287,0.0096132,-0.11673,-0.47166,-0.05539,0.1561,0.3267,0.074311
-0.045014,0.013886,-0.075837,0.30198,-0.031281,0.10941,0.18082,0.086519
-0.048371,0.015412,-0.094148,-0.13993,-0.025483,0.099641,-0.099947,0.039216
-0.0383,0.015412,-0.088655,-0.14847,-0.035554,0.12711,-0.047456,0.0068666
-0.044709,-0.0065614,-0.049287,-0.082246,-0.029145,0.099031,-0.23911,-0.016632
-0.02121,-0.055695,-0.041657,-0.096895,-0.027314,0.10758,-0.085603,-0.0056458
-0.0062562,-0.074311,-0.01297,-0.072786,0.00045777,-0.11063,0.22751,0.0086976
0.048371,-0.14969,0.0013733,-0.044709,0.047456,-0.55863,0.044099,-0.019074
0.093538,-0.19028,-0.0044251,-0.046235,0.023346,0.010834,0.035248,-0.026703
0.08957,-0.15671,0.0077821,-0.026093,0.012055,0.30411,0.37156,-0.096895
0.10636,-0.11215,-0.018158,0.0068666,0.053254,-0.41398,-0.19242,-0.21408
0.10697,-0.014801,-0.052949,-0.046235,0.08957,-0.58762,-0.97612,-0.22019
0.094759,0.011139,-0.064851,-0.10056,0.09659,0.016938,-0.066682,-0.16068
0.04593,-0.018158,-0.075227,-0.0206,0.069429,0.22568,0.23331,-0.15702
-0.049592,-0.052644,-0.048981,0.076753,0.035554,0.23423,0.090486,-0.020294
-0.07126,-0.060273,-0.090791,-0.024567,0.056916,0.050507,0.027314,0.12863
-0.08896,0.016327,-0.12345,-0.1268,0.06363,0.0028992,-0.38651,0.11307
-0.13626,0.051728,-0.12436,-0.16068,0.0074769,0.13474,0.31785,0.13016
-0.17929,0.076143,-0.091096,-0.1384,-0.034943,0.11307,0.30198,0.12253
-0.20401,0.10422,-0.10758,-0.12467,-0.084077,0.043183,-0.059358,0.11307
-0.17075,0.058137,-0.088655,-0.10575,-0.067597,0.042573,0.04715,0.13596
-0.089265,0.02182,-0.050813,-0.074617,-0.03769,0.058747,-0.10452,0.11978
-0.063325,-0.026703,-0.024262,-0.20676,-0.038605,0.061494,0.098421,0.091402
-0.014191,-0.1503,0.0013733,0.02182,-0.061799,0.062715,0.38773,0.11398
0.079805,-0.23697,0.013275,0.17655,0.011139,0.064546,0.0047303,0.12497
0.073396,-0.2327,0.027314,-0.16861,0.024872,0.057527,-0.088045,-0.017243
0.050202,-0.1268,-0.018769,-0.18357,-0.11856,0.009308,-0.025788,-0.10544
0.04593,-0.051423,-0.036164,-0.059358,-0.093843,0.15549,-0.18265,-0.1387
0.002594,-0.052644,-0.030976,-0.20676,0.045319,0.41459,0.32761,-0.14755
-0.072786,0.04654,-0.11734,-0.14908,0.20371,0.27848,0.52232,-0.087434
-0.049897,0.048676,-0.11124,-0.08896,0.47593,0.11887,-0.24704,-0.0056458
-0.072786,0.044099,-0.090181,0.0013733,0.086213,0.037995,-0.42618,0.014191
-0.11154,0.011444,-0.090486,0.070649,-0.073701,-1.0723,-0.14054,0.039521
-0.076143,0.027314,-0.10452,-0.15915,0.011444,-1.725,-0.21561,0.035554
-0.0795,0.034333,-0.1323,-0.18082,-0.087739,0.35325,0.057527,-0.0022889
-0.089265,0.039521,-0.11429,-0.042573,-0.12039,0.61479,0.25772,0.030365
-0.067597,0.017853,-0.082856,0.016938,-0.12558,0.1857,0.27054,0.10086
-0.020905,-0.032502,-0.033722,-0.042573,-0.095674,0.30991,0.19486,0.076448
0.040131,-0.10758,-0.019684,-0.096284,-0.041047,0.19791,0.0050355,-0.010834
0.027619,-0.083467,0.01236,-0.12039,-0.025177,0.3267,0.032807,-0.015106
0.019989,-0.10056,0.0044251,-0.23301,-0.023041,0.48631,0.017243,0.002594
0.024872,-0.10697,-0.002594,-0.1735,0.031891,0.13077,-0.044709,0.019684
0.047456,-0.10605,0.031586,0.079805,0.14694,-0.30533,-0.16831,0.025788
0.034943,-0.10452,-0.014496,0.058137,0.082551,-0.78172,-0.26993,-0.015412
0.048066,-0.098421,-0.030365,-0.042878,-0.016327,-0.093538,0.064546,0.045624
0.022126,-0.085603,-0.043183,-0.047456,0.041352,0.18112,0.13107,0.04715
0.025788,-0.07248,-0.093233,-0.0050355,0.0035096,0.045014,0.0019837,-0.0050355
-0.017243,-0.020294,-0.12039,-0.028534,-0.01297,0.064851,0.01297,-0.13046
-0.069429,0.025177,-0.13901,-0.13138,0.011139,0.030365,0.014801,-0.14389
-0.043793,0.14115,-0.13443,-0.15396,0.089876,0.018158,0.056001,0.022126
-0.07126,0.14389,-0.1033,-0.053559,0.069429,0.04715,-0.032807,0.039826
-0.089876,-0.047761,-0.036469,-0.036774,-0.016632,0.031586,-0.064851,-0.054475
-0.12467,-0.13993,-0.090791,-0.38285,-0.032807,-0.017548,-0.0090028,-0.01297
-0.22232,0.023651,-0.082551,-0.12375,-0.023041,-0.010834,0.027008,0.10483
-0.1857,0.10513,-0.059052,0.012665,0.0086976,0.091707,0.10636,0.18448
-0.13046,0.057527,-0.032502,-0.040742,-0.034943,0.12375,0.051423,0.20554
0.011749,-0.02182,-0.024872,-0.067292,-0.064851,0.048676,0.04715,0.12222
0.078584,-0.13291,0.052033,-0.073396,-0.018769,0.0099184,0.16861,0.0019837
0.11093,-0.16739,0.019684,-0.05478,-0.0022889,0.15183,0.32395,-0.037079
0.099947,-0.086519,-0.025483,-0.009308,-0.0050355,0.18845,0.26932,-0.06363
0.063325,-0.076448,-0.027924,-0.019074,0.019684,0.073091,-0.011444,-0.12863
0.071565,-0.13352,-0.030365,0.002594,0.044404,0.032197,-0.24674,-0.11368
0.057832,-0.081331,-0.058747,-0.073396,0.019989,0.068513,-0.10819,-0.11826
0.066072,-0.07248,-0.070649,0.045319,0.0086976,-0.42313,-0.085908,-0.12039
-0.059663,-0.050202,-0.090486,-0.074617,0.074311,-0.68925,-0.43168,-0.065766
-0.12192,0.025483,-0.13901,-0.22782,0.18082,0.070954,0.0038148,0.037079
-0.12741,0.035859,-0.14054,-0.18875,0.083772,0.15946,0.24613,0.12161
-0.10178,-0.0022889,-0.11704,-0.15763,0.019074,0.0013733,0.030365,0.094148
-0.10697,-0.036469,-0.066682,-0.10361,-0.075837,0.057221,-0.17594,0.0795
-0.099641,0.040742,-0.053254,-0.074617,-0.072175,0.030976,-0.2266,0.1268
-0.070039,-0.028534,-0.073091,-0.038605,-0.051423,-0.11063,-0.27481,0.10269
-0.057832,0.0013733,-0.052644,0.024567,-0.061189,0.13413,-0.090181,0.041352
0.0077821,-0.0099184,-0.02182,0.10697,-0.052949,0.15213,0.3328,0.039216
0.036164,-0.022736,-0.018463,-0.041352,-0.0013733,0.005951,0.215,-0.0013733
0.019379,-0.034638,-0.011444,-0.21958,0.0071717,0.079194,0.20645,-0.047456
-0.011139,-0.032807,-0.0047303,-0.15579,0.029755,0.17563,0.2562,0.0206
-0.002594,-0.11826,-0.0016785,-0.08896,0.036774,0.18997,0.12039,0.046235
0.010529,-0.13413,-0.01236,-0.042573,-0.049287,0.11917,-0.15213,0.037079
0.014191,-0.064851,-0.060883,-0.040436,0.11185,-0.28489,-0.28702,-0.014801
0.037995,-0.11154,0.024262,0.14755,0.11368,-0.10971,0.010834,-0.041962
-0.0035096,-0.092622,-0.095064,-0.26444,0.041962,0.11795,0.12436,-0.075837
-0.045319,-0.048066,-0.14389,-0.33799,0.061494,-0.0090028,0.037995,-0.10147
-0.082856,0.044709,-0.13046,0.36973,0.0086976,-0.043488,0.0013733,-0.022431
-0.14237,0.11826,-0.13993,0.047761,-0.057221,-0.04593,-0.057221,0.009308
-0.12253,0.15,-0.11978,-0.30442,-0.08011,-0.36088,-0.095064,0.036774
-0.084993,0.14664,-0.095064,-0.22751,0.049592,0.10269,0.1677,0.073396
-0.002594,0.045624,-0.10483,-0.25559,0.012055,0.44358,0.35904,0.075532
0.0096132,-0.064546,-0.048371,-0.01236,-0.10788,0.22629,0.29374,0.094148
-0.048676,-0.096895,-0.012055,0.064851,-0.10422,-0.083162,-0.04654,0.074006
-0.0206,-0.24063,0.066682,-0.15152,0.19699,-0.73259,-0.97551,-0.015717
0.06302,-0.27298,-0.0013733,-0.11276,0.089876,-0.070344,-0.10025,-0.0028992
0.12833,-0.13687,-0.045624,-0.062715,-0.04593,0.24857,0.34409,-0.037385
0.047761,-0.11093,0.010834,0.11948,0.013886,0.13657,0.11704,-0.096284
-0.011139,-0.016938,-0.027924,0.045624,0.047456,0.056306,0.15091,-0.12009
-0.0086976,-0.0035096,-0.039216,-0.14176,0.057527,-0.020294,0.027924,-0.08957
0.002594,-0.046845,-0.046235,-0.09781,0.019684,0.00045777,-0.29007,-0.065461
0.066682,-0.062715,-0.035554,-0.27756,0.024872,0.0065614,0.0028992,-0.035248
0.071565,-0.048676,-0.056611,0.19913,0.031891,-0.01297,0.2504,-0.019684
0.0010681,0.0086976,-0.14115,0.039521,0.0019837,0.05417,0.27115,-0.04715
-0.12406,0.088655,-0.15518,-0.4918,-0.009308,0.082551,0.1854,-0.023041
-0.17472,0.06424,-0.10483,0.12222,-0.069123,0.045319,-0.50614,0.03006
-0.20401,0.11337,-0.11948,-0.099031,-0.04715,0.042267,0.045624,0.1387
-0.18662,0.091402,-0.11154,-0.30198,0.018158,0.17288,0.44907,0.18936
-0.13352,0.047761,-0.081941,-0.22629,-0.081636,0.36332,0.058442,0.20798
-0.082856,-0.048981,-0.055085,0.16526,-0.10361,0.29953,-0.091707,0.29648
-0.045014,-0.082551,0.005951,-0.061799,-0.035554,0.14328,-0.66026,0.17899
-0.036774,-0.069429,0.00076295,0.10147,0.10239,-0.36515,-0.30686,0.086519
0.015106,-0.16342,0.0083925,0.14572,0.17136,-1.1983,0.2266,0.031586
-0.0053407,-0.074922,-0.024872,-0.43229,0.025788,-0.28794,0.094148,-0.10605
-0.026703,-0.066987,0.025788,0.17563,-0.1442,0.32334,0.19852,-0.051728
0.063935,-0.11032,0.01236,-0.0090028,-0.13626,0.14725,0.26627,-0.031281
0.069734,-0.065461,-0.041962,-0.53056,0.12436,0.1796,0.19852,-0.073701
0.048066,-0.00015259,-0.072786,-0.103,0.23789,0.33738,0.069734,-0.049287
0.058137,-0.10575,-0.030671,0.056916,0.19944,0.051423,-0.29557,-0.0080873
-0.0074769,-0.087434,-0.082246,-0.023041,0.27817,-0.11063,-0.14969,-0.082246
-0.050813,-0.032502,-0.14694,-0.069734,-0.089876,0.090791,0.18936,-0.095064
-0.074617,-0.021515,-0.12375,-0.08072,-0.15183,0.039521,0.29892,0.056001
-0.07187,-0.0206,-0.12436,-0.099947,-0.063325,-0.0096132,0.14786,0.092622
-0.08835,0.061494,-0.10086,-0.10483,-0.078279,0.050507,0.053864,0.010834
-0.077363,0.07248,-0.10025,-0.089876,-0.056611,0.18753,-0.086213,-0.060883
-0.024262,0.027314,-0.072786,-0.067292,-0.078279,0.24949,-0.17288,-0.032502
0.0010681,-0.0016785,-0.0383,-0.079194,-0.055695,0.13016,0.028229,0.0056458
-0.010224,-0.034638,-0.024567,-0.07126,-0.010224,0.0041199,0.011749,-0.0206
0.027619,-0.075532,-0.012665,-0.030976,0.011749,-0.37583,-0.65965,-0.082246
0.06424,-0.10452,0.00076295,-0.081331,0.079805,-0.68894,-0.20554,-0.051118
0.083772,-0.13199,-0.018158,-0.034943,0.077668,0.16403,0.36484,-0.045624
0.022736,-0.099336,-0.017853,0.0206,0.014191,0.35752,0.31693,-0.05478
0.025177,-0.082246,-0.030365,-0.02945,-0.0035096,0.095064,0.19242,-0.0090028
0.0068666,-0.066377,-0.016632,-0.018769,-0.028229,-0.023957,-0.070649,-0.014191
-0.029755,-0.059968,-0.066682,-0.14115,0.084382,-0.47501,-0.28061,-0.048981
-0.017548,0.00015259,-0.09659,-0.27054,0.17807,-0.11246,-0.036774,-0.034333
-0.054475,0.044099,-0.081331,-0.076448,-0.0022889,0.24338,-0.087129,-0.031281
-0.1265,0.015717,-0.061799,-0.11307,-0.02884,0.012055,-0.18601,-0.033112
-0.13474,0.049287,-0.10361,-0.11673,-0.0056458,0.0044251,-0.053864,0.036774
-0.15946,0.027924,-0.12894,-0.027619,-0.073396,0.08072,-0.11429,0.15152
-0.12924,0.020294,-0.13718,0.019684,-0.096895,0.13107,0.41001,0.22751
-0.10819,0.08011,-0.10971,-0.084382,-0.014496,0.028534,0.2678,0.21561
-0.052033,0.062104,-0.04715,-0.048676,-0.015412,0.078279,0.094453,0.19547
-0.06363,0.051728,-0.020294,-0.11063,-0.062104,0.17197,0.32792,0.10575
-0.068208,-0.11795,0.032197,-0.15732,0.034028,0.032807,-0.077058,0.04715
-0.00045777,-0.21622,-0.005951,-0.093538,0.053254,0.13901,-0.0056458,0.10422
0.0795,-0.17807,-0.026703,-0.036164,-0.0056458,0.19974,0.38682,0.08835
0.055085,-0.070649,-0.00045777,-0.038605,0.045319,-0.24125,-0.22049,-0.047456
0.035554,-0.023957,-0.032807,-0.02945,0.08835,-0.21256,-0.60105,-0.11948
0.015106,-0.002594,-0.014801,-0.027314,0.04593,0.22232,-0.091096,-0.17197
-0.0206,-0.085603,-0.028229,-0.032502,0.073091,0.25223,0.32151,-0.13748
-0.014801,-0.098726,-0.066987,-0.061494,0.091707,0.098726,0.16892,-0.014496
-0.014191,-0.033722,-0.12497,-0.11643,0.088655,-0.50675,-0.041047,0.0016785
0.0013733,-0.090181,-0.11276,-0.10544,-0.086824,-0.57481,-0.16617,-0.042878
0.040436,-0.1564,-0.092927,-0.14389,-0.063325,0.13107,-0.12741,-0.018158
0.016632,-0.015717,-0.098116,-0.12802,-0.026703,0.13169,0.21744,0.0032044
-0.0022889,-0.028229,-0.11276,-0.079194,-0.06302,0.072175,0.22751,0.01297
-0.033722,0.0047303,-0.098116,-0.10849,-0.028229,0.13169,0.075837,0.046845
-0.014496,0.052033,-0.074617,0.059052,-0.0013733,0.19821,0.048981,0.011749
0.055695,0.074311,-0.022126,-0.042573,-0.0028992,0.14542,0.013886,-0.0080873
-0.025483,0.040436,-0.034028,0.033722,-0.036469,0.066987,-0.048981,-0.025788
-0.085908,-0.012665,-0.073091,0.10239,-0.014801,0.013886,-0.14786,-0.0086976
-0.078279,-0.03769,-0.013581,-0.14603,0.097505,-0.16434,-0.17014,0.017548
-0.069429,-0.098726,0.03006,-0.28,0.13657,-0.50187,-0.036469,-0.010224
-0.00076295,-0.15,0.0035096,-0.14847,0.08011,0.074617,0.023041,-0.041657
-0.0035096,-0.066682,-0.034943,-0.031586,0.035859,0.28489,-0.03769,-0.043793
-0.031891,-0.062715,-0.044404,-0.022126,-0.019684,0.099641,-0.057527,-0.029145
-0.087129,-0.038911,-0.06302,-0.036164,-0.026398,-0.22751,0.075227,0.025483
-0.049287,-0.086519,-0.034638,-0.12772,0.015412,-0.48783,0.15488,0.05417
0.019684,-0.11398,-0.061189,-0.14603,-0.010529,0.12802,0.24033,0.060273
-0.070039,0.047761,-0.1088,-0.092927,0.0016785,0.20981,-0.4213,-0.0035096
-0.1445,0.10575,-0.14633,-0.10697,0.034943,0.11856,-0.36423,0.069429
-0.13474,0.10178,-0.12711,-0.083467,-0.029145,0.15763,0.43381,0.16709
-0.11032,0.057527,-0.081941,-0.064851,-0.074922,0.11643,0.35477,0.1796
-0.098116,0.052338,-0.092927,-0.015106,-0.061189,0.074617,0.1854,0.13718
-0.042878,0.029145,-0.066072,-0.044099,-0.023651,0.065156,0.073396,0.096284
0.0086976,-0.034943,-0.05417,-0.0972,0.037385,0.057221,0.013886,0.034028
0.080415,-0.12558,-0.042267,-0.07126,-0.028534,0.018463,0.051423,-0.042573
0.11612,-0.1976,0.013886,-0.067597,-0.02121,-0.0050355,-0.015717,-0.11551
0.067597,-0.12833,0.019989,-0.12802,0.077363,0.0019837,-0.14359,-0.11978
0.0056458,-0.068513,-0.02182,-0.088655,0.069734,0.12192,-0.28611,-0.085908
-0.0035096,-0.070954,-0.020905,-0.094453,0.10544,-0.045624,-0.10544,-0.087129
-0.042573,-0.060273,-0.029755,-0.033112,0.051118,-0.045319,0.18936,-0.082246
-0.041962,0.010529,-0.052033,-0.051728,-0.019379,0.17502,0.10666,-0.073701
-0.044709,0.026093,-0.059052,-0.062715,0.0065614,0.13107,-0.22507,0.010529
-0.021515,-0.016632,-0.068513,-0.055085,-0.022736,0.29007,0.26383,0.03769
-0.020294,-0.15702,-0.07126,-0.057221,0.02182,-0.045624,0.19272,0.024872
-0.071565,-0.046235,-0.10269,-0.082856,0.073701,-0.99718,-0.08011,0.10056
-0.0047303,0.031586,-0.10452,-0.094453,0.030365,-0.30808,0.077668,0.1384
0.13046,0.012665,-0.13291,-0.11765,-0.002594,0.11246,-0.24552,0.065461
0.045014,0.047761,-0.12772,-0.070954,0.0047303,0.024567,-0.7039,-0.041047
-0.14664,0.11826,-0.086519,-0.089876,-0.083772,0.16953,-0.014191,-0.017243
-0.20676,0.081331,-0.064851,-0.21622,-0.088045,0.093233,-0.061799,0.011749
-0.10117,-0.045319,-0.018463,-0.28641,0.076753,0.052644,-0.014801,0.084688
-0.027008,-0.15702,0.016022,0.24186,0.066072,0.091096,0.32364,0.048371
-0.023346,-0.15549,0.015412,0.23758,-0.010834,0.059663,0.18326,0.0035096
0.016938,-0.14969,-0.01236,-0.021515,0.048066,0.0053407,0.12314,-0.044709
0.013886,-0.13626,-0.012055,-0.1912,0.015106,0.07248,0.14084,-0.049592
-0.00045777,-0.09659,-0.010224,-0.13321,0.011749,0.12741,0.15061,-0.035248
0.026093,-0.042573,-0.043793,-0.087129,-0.02121,0.18112,0.19333,-0.013275
0.063935,-0.00015259,-0.073396,-0.050507,-0.10544,0.21561,0.20401,-0.0206
0.038911,-0.039521,-0.08011,-0.018769,0.076448,-0.24277,0.10666,-0.04654
0.009308,-0.045624,-0.062409,-0.086519,0.1564,-0.3035,-0.15702,-0.035554
-0.032807,-0.016632,-0.074617,-0.31907,0.085298,-0.07126,-0.47868,-0.06363
-0.12528,0.031586,-0.092317,0.25559,-0.0035096,-0.040436,-0.3801,0.00045777
-0.18875,0.11612,-0.13291,-0.48844,-0.058442,0.00045777,-0.0068666,0.12833
-0.15824,0.090181,-0.12467,-0.65263,-0.11551,0.13382,0.26047,0.19028
-0.10788,0.025788,-0.0972,0.67918,-0.043183,0.14145,0.26017,0.18662
-0.067292,0.0062562,-0.088655,0.33219,0.05417,0.014191,0.023346,0.1442
0.0010681,-0.064546,-0.066682,-0.2031,-0.095064,0.064851,0.039826,0.11032
0.020294,-0.056306,-0.00045777,-0.067292,-0.05478,0.12589,0.014801,0.021515
0.011139,-0.077668,-0.0016785,-0.12467,0.04593,0.05417,0.027314,-0.059052
0.053254,-0.099641,0.017853,-0.24186,0.04715,0.033112,0.070039,-0.052033
0.069734,-0.13626,0.019379,-0.088655,0.068513,0.05478,0.059663,-0.073701
0.075227,-0.10971,-0.025788,-0.10697,0.067903,0.012665,0.025177,-0.11795
0.055085,-0.099336,-0.028229,-0.24399,0.027314,-0.34562,-0.02945,-0.10452
0.047761,-0.10086,-0.017853,0.33066,0.010529,-0.32059,0.037995,-0.10941
-0.052033,-0.021515,-0.062104,-0.12192,0.025177,0.18997,0.17838,-0.1146
-0.084077,0.0019837,-0.078279,-0.087739,-0.04715,0.121,0.092317,-0.039826
-0.067597,-0.0056458,-0.10544,-0.11887,-0.018463,0.10697,-0.066072,0.041047
-0.043793,-0.0022889,-0.12924,-0.11673,0.093233,0.16953,-0.35019,0.053254
-0.084077,0.011444,-0.10544,-0.095064,0.029755,0.14969,-0.13474,0.042267
-0.08835,0.054475,-0.11948,-0.1384,-0.049592,0.057527,0.1146,0.079805
-0.030671,0.0044251,-0.14511,-0.18509,-0.14725,0.020905,0.033112,0.078584
-0.095064,0.11582,-0.11154,0.0056458,-0.20523,-0.40543,0.13016,0.025788
-0.094453,0.059968,-0.061189,0.060273,-0.014801,-0.47257,0.14206,0.068513
-0.044709,-0.030976,-0.032197,-0.21378,0.24399,0.26047,0.11917,0.10788
-0.023651,-0.045319,-0.023651,-0.10452,0.10758,0.12375,0.05417,0.029755
0.015106,-0.069429,-0.0038148,-0.1326,0.27298,0.042878,-0.20706,-0.0050355
0.06424,-0.16037,0.040131,0.15305,0.067292,0.10147,-0.023651,-0.0080873
0.074617,-0.20554,0.053559,-0.038605,-0.077058,-0.087739,0.065766,-0.050507
0.034333,-0.15885,-0.019074,-0.095674,0.069123,0.058442,-0.25132,-0.06363
0.033417,-0.1207,-0.030976,0.024872,-0.031281,0.11093,-0.12375,-0.013581
0.057527,-0.16617,0.030671,-0.38956,-0.034943,-0.037385,0.14878,-0.045014
0.0090028,-0.19608,-0.041962,-0.12467,0.047456,-0.040436,0.14145,-0.065156
-0.049287,-0.10086,-0.11551,0.051423,0.070649,-0.037385,0.014801,0.00076295
-0.074617,0.097505,-0.14633,-0.14054,0.058442,0.060578,0.081941,0.010834
-0.077668,0.12955,-0.14054,0.22263,-0.11002,0.30808,0.10147,0.012665
-0.15396,0.16342,-0.13474,-0.23972,-0.11643,0.27024,-0.21134,0.0038148
-0.1442,0.090181,-0.12497,-0.25803,-0.16831,0.21561,-0.1677,0.096284
-0.081636,0.12253,-0.0795,-0.14389,-0.12589,0.072175,-0.092012,0.22324
-0.0019837,0.073396,-0.074922,-0.12802,-0.010834,-0.39048,0.057832,0.16678
-0.072175,-0.0065614,-0.020294,0.053559,0.0071717,-0.55406,0.012055,0.075227
-0.059358,-0.073701,-0.024872,0.033417,0.057527,-0.15518,-0.017548,0.11185
-0.022736,-0.12253,-0.022431,0.10391,0.22995,-0.049592,-0.077058,0.17227
0.03006,-0.11032,-0.012055,-0.15152,0.11978,0.12314,0.20066,0.16281
0.033722,-0.12619,-0.0062562,-0.24887,0.009308,0.069429,0.34501,-0.034333
-0.0074769,-0.08072,-0.01236,-0.085603,0.0013733,0.15366,0.24155,-0.13046
-0.0019837,-0.092927,-0.0080873,0.039216,-0.052949,0.29374,-0.052949,-0.14939
0.051423,-0.13474,0.021515,0.016632,-0.070039,0.20554,0.14694,-0.16007
0.011749,-0.048371,-0.085908,-0.26841,-0.035248,0.11551,0.34134,-0.18479
0.0080873,-0.047761,-0.074617,0.11551,-0.096895,0.096895,0.2089,-0.13352
-0.042878,-0.010529,-0.10605,-0.03769,-0.00076295,-0.34348,-0.24857,-0.02884
-0.067597,0.0077821,-0.12467,-0.11063,0.20554,-0.22843,-0.82597,-0.0071717
-0.10117,0.032197,-0.12314,-0.082856,0.14328,0.28214,-0.87572,-0.031281
-0.091707,0.026398,-0.10452,-0.10239,-0.0065614,0.54215,0.34592,0.035554
-0.081331,0.068513,-0.10269,-0.10941,0.025177,0.30625,0.30747,0.023041
-0.091402,0.066072,-0.10147,-0.09659,0.080415,-1.0011,-0.11856,0.022736
-0.12375,0.078279,-0.0972,-0.18418,0.031281,-0.6215,-0.16648,0.018769
-0.092927,0.0062562,-0.049897,-0.15396,-0.084688,-0.25254,-0.57267,0.052033
0.055085,-0.1503,0.016022,0.027008,-0.17288,-0.11246,0.17777,0.13169
0.066682,-0.11368,-0.019989,0.056001,-0.00015259,0.36027,0.57603,-0.050507
0.067292,-0.088045,-0.020905,-0.089876,0.037079,0.14725,0.37278,-0.049897
0.094148,-0.092622,-0.022736,-0.33402,-0.037385,0.15366,-0.077363,0.0077821
0.095674,-0.10208,0.019379,0.42466,-0.078889,0.17838,-0.32639,-0.053559
0.063325,-0.14176,0.024567,-0.3859,0.05417,0.096895,0.087434,-0.074617
0.046235,-0.1796,-0.0044251,0.168,0.070039,0.068513,0.14389,-0.025177
-0.059968,-0.0022889,-0.065766,0.13291,-0.048981,0.059358,0.1387,0.021515
-0.066987,0.0010681,-0.088045,-0.24582,0.10666,0.016938,0.15091,0.048371
-0.033417,-0.030976,-0.14298,-0.12589,0.21378,0.098421,0.16922,0.035248
0.00045777,-0.046845,-0.074311,-0.074311,0.059052,0.074311,0.10971,0.031281
-0.053864,0.079194,-0.15457,-0.19913,-0.019684,-0.028229,-0.023651,0.050202
-0.1387,0.20035,-0.15732,-0.23239,0.056306,-0.051728,-0.17563,0.12924
-0.14603,0.10178,-0.10422,-0.13138,-0.069734,0.089876,0.26596,0.18936
-0.059968,-0.074922,-0.082246,-0.074311,-0.14145,0.061189,0.30869,0.18631
0.0086976,-0.15702,-0.002594,-0.036774,-0.074006,0.02884,-0.29831,0.12985
0.015106,-0.21164,0.017243,0.027619,-0.050507,-0.015412,-0.5333,0.002594
-0.045014,-0.10758,-0.0096132,0.019074,-0.025177,-0.017243,-0.21347,-0.030365
-0.020294,-0.066072,-0.0016785,-0.079194,-0.0041199,0.027314,0.23087,-0.027619
-0.038605,-0.0080873,-0.034028,-0.52232,0.040131,-0.063935,0.16281,-0.06363
-0.082246,0.034638,-0.025483,0.39231,0.063325,-0.0056458,0.16495,-0.10147
-0.0383,0.042267,-0.0083925,0.45304,0.082551,0.020294,0.18112,-0.052644
0.063935,-0.0077821,-0.011444,-0.13535,-0.043183,0.042878,0.050202,-0.058747
-0.05478,-0.10178,-0.052949,-0.42252,0.019684,0.029145,-0.013275,-0.13657
-0.098421,-0.079805,-0.083467,-0.14359,0.074006,-0.07126,-0.12528,-0.08072
-0.11856,-0.010834,-0.084688,-0.089876,0.077363,-0.080415,-0.27085,0.011749
-0.066987,0.059663,-0.11154,-0.081636,-0.0056458,0.027008,0.037385,0.035554
0.0099184,0.0053407,-0.13107,0.0056458,-0.095064,0.075837,0.19944,0.017853
0.018158,0.012665,-0.12711,-0.10452,0.12192,0.014191,0.037079,0.023957
0.016938,0.031281,-0.10208,-0.26902,0.0074769,0.030671,0.13016,0.079805
-0.11582,0.14145,-0.096284,-0.20676,-0.1796,0.051423,0.22538,0.08957
-0.13687,0.061189,-0.074311,-0.0086976,-0.0028992,-0.032197,-0.019379,0.06363
-0.056916,-0.073701,-0.05478,-0.063325,0.023651,-0.010224,-0.2385,0.13931
-0.077058,-0.10391,-0.023041,-0.06424,-0.050813,0.044709,-0.30533,0.10788
-0.018463,-0.081331,-0.0099184,-0.061799,0.033722,0.12467,-0.095979,0.076448
0.052949,-0.1677,0.016327,0.059052,0.057832,0.10269,0.20096,0.061799
0.065156,-0.25742,0.018158,0.052644,0.033417,0.021515,0.0071717,-0.062104
0.054475,-0.11429,-0.033722,-0.025177,0.061494,-0.065156,0.082551,-0.10788
0.084077,-0.18845,-0.03006,0.0099184,0.12253,-0.43992,0.16434,-0.077668
0.12863,-0.22263,0.018769,0.077058,0.072175,-0.12406,-0.094148,-0.092927
0.088655,-0.12436,-0.029145,-0.46555,0.046845,0.12467,-0.08896,-0.13962
-0.016632,0.012055,-0.083162,-0.20829,0.040131,-0.015717,-0.0065614,-0.12375
-0.06302,0.095979,-0.096895,-0.035248,-0.013275,0.05539,-0.026398,-0.024262
-0.059358,0.11582,-0.11521,-0.056611,-0.025788,0.12009,0.048066,0.031586
-0.072786,0.061494,-0.11032,-0.07126,-0.12955,0.24125,0.070649,0.0068666
-0.11643,0.063935,-0.13291,-0.078279,-0.11521,0.11978,0.026703,0.011139
-0.11337,0.10117,-0.11154,-0.079194,0.066377,-0.36179,-0.057832,0.031586
-0.061494,0.10269,-0.10636,-0.11765,0.0038148,-0.14786,-0.039521,0.069734
0.031281,0.042267,-0.062104,0.27634,-0.15274,0.078889,0.085908,0.099641
-0.028229,0.041352,-0.059968,-0.39933,-0.12558,0.059358,0.011444,0.02945
-0.12253,-0.031891,-0.016022,-0.25711,0.053559,0.057527,-0.14542,0.025483
-0.090791,-0.14786,-0.0047303,-0.033112,0.21347,0.087434,0.089265,0.15824
0.00045777,-0.12619,0.0053407,-0.051118,0.1442,0.048676,0.16342,0.17319
0.027619,-0.17746,0.053864,-0.039216,0.0019837,0.045014,-0.088045,0.061799
-0.00045777,-0.2089,0.00045777,-0.011139,-0.033722,0.21439,-0.1384,0.028229
0.025177,-0.16861,-0.005951,-0.10239,-0.021515,0.39292,0.26352,0.033112
0.050202,-0.11276,-0.010834,-0.11856,-0.0068666,0.27665,0.19577,0.0050355
-0.029755,-0.0099184,-0.11521,-0.069123,-0.060578,0.10605,-0.10605,-0.091707
-0.036774,-0.024567,-0.10117,-0.083772,-0.045624,-0.42191,-0.057832,-0.085298
-0.08072,0.017853,-0.10483,-0.060273,0.059358,-1.4723,-0.25864,-0.076143
-0.10422,0.076753,-0.1265,0.022736,-0.00015259,-0.15854,-0.083467,-0.035859
-0.11307,0.11826,-0.15122,0.050202,-0.0096132,0.46372,0.26596,-0.027619
-0.064851,0.084382,-0.12558,-0.088655,0.030976,0.14481,0.23392,-0.041657
0.024262,-0.02945,-0.050813,-0.0795,0.26139,0.17166,0.23941,0.029755
0.076448,-0.050202,-0.045624,-0.075837,0.22293,0.043183,-0.43931,-0.024872
0.057221,-0.0206,-0.043793,-0.1619,-0.071565,0.058747,-0.38773,-0.0086976
0.023651,-0.0099184,-0.034028,-0.12161,-0.09781,0.14145,0.2327,0.010834
-0.034333,-0.018463,-0.016022,-0.057221,-0.11856,0.26871,0.025177,0.012055
-0.082856,-0.03769,-0.046845,-0.071565,-0.087434,0.3389,0.43626,0.048371
-0.062715,-0.11246,-0.028534,-0.064546,-0.034943,0.24765,0.35752,0.0096132
-0.0053407,-0.13657,-0.0013733,-0.062409,0.032807,-0.26078,-0.49271,-0.052033
0.048066,-0.15702,0.028229,-0.050813,0.095674,-0.28519,-0.50767,-0.061494
0.031586,-0.096895,-0.025483,-0.1268,0.081636,-0.15579,-0.071565,-0.061189
0.010529,-0.083467,-0.048371,0.21561,0.13382,-0.94652,-0.24979,-0.09781
0.0047303,-0.031891,-0.075227,0.013581,0.039216,0.037385,0.14817,-0.030671
-0.083162,0.054475,-0.094148,-0.089876,-0.057527,0.49516,0.63523,0.016632
-0.016327,0.046235,-0.1149,-0.10941,-0.11704,0.25467,0.8452,0.031281
-0.009308,0.010529,-0.11765,-0.31022,-0.099641,-0.0013733,0.1677,0.0068666
-0.048981,0.013581,-0.1207,-0.29526,0.0090028,-0.23117,-0.8986,-0.015106
-0.094453,0.033417,-0.087434,-0.21927,0.048066,0.070954,-0.72404,0.079194
-0.15152,0.036469,-0.070344,0.023041,-0.016632,0.168,-0.041657,0.11002
-0.16678,0.02182,-0.094148,-0.020294,-0.00045777,-0.077363,0.18723,0.12253
-0.16159,-0.017548,-0.082246,-0.052949,-0.020294,0.02121,0.39139,0.11673
-0.084382,-0.037385,-0.053864,-0.085908,-0.04654,0.12741,0.098726,0.17166
-0.025788,-0.034638,-0.0056458,-0.065156,-0.041352,0.11093,0.024262,0.18021
-0.051728,-0.046845,0.010529,-0.0013733,-0.059358,0.13352,0.096895,0.065461
-0.04654,-0.060578,-0.0074769,-0.048981,0.031586,0.0083925,-0.17044,-0.011444
0.034943,-0.13291,0.0074769,-0.11887,0.098116,-0.065766,-0.091096,-0.0206
0.057832,-0.12039,-0.010529,-0.19669,0.048066,0.034028,0.24735,-0.026398
0.053254,-0.11673,-0.0044251,-0.18112,0.049287,0.066987,0.26352,-0.035859
0.068208,-0.10666,-0.04654,0.20951,0.055695,-0.010834,0.08835,-0.066072
0.041047,-0.01297,-0.082246,0.17716,0.030365,-0.056611,-0.18875,-0.057527
0.048371,-0.023957,-0.081941,-0.16953,0.043183,-0.045014,-0.33829,-0.019684
-0.00076295,0.0083925,-0.099336,-0.014801,0.043183,-0.010224,-0.05478,0.0010681
-0.035554,0.018463,-0.1268,-0.23209,0.060273,0.005951,0.1561,-0.00045777
-0.037079,-0.009308,-0.11612,-0.31327,-0.018769,0.10544,0.30442,-0.016938
-0.064546,0.052033,-0.11093,-0.045624,-0.103,0.049592,0.27573,-0.04593
-0.13535,0.11643,-0.11032,-0.020905,-0.068818,-0.04654,0.12589,-0.027619
-0.090181,0.073701,-0.097505,-0.11185,-0.0080873,-0.099947,-0.1561,0.025483
-0.0090028,-0.010224,-0.07187,-0.077668,0.13321,-0.067597,-0.18235,0.061189
0.047761,-0.054475,-0.025483,-0.12711,0.091402,0.23026,0.28763,0.027008
0.12222,-0.12985,0.024567,0.00045777,-0.12619,0.2092,0.072175,-0.00076295
0.14206,-0.20829,0.039521,0.30076,-0.16281,0.066682,-0.60197,-0.085908
0.030976,-0.1976,-0.013581,-0.36851,-0.027008,-0.0383,-0.30503,-0.103
0.018158,-0.22538,-0.0019837,-0.29496,0.14511,-0.4152,-0.092317,-0.076143
-0.034943,-0.16403,-0.0074769,-0.1088,0.15915,-0.24826,0.083467,-0.059663
-0.096284,-0.12497,-0.037079,-0.061799,-0.032807,0.27756,0.49332,-0.051423
-0.08896,-0.052338,-0.041962,0.21012,-0.02945,0.14603,0.31601,-0.0019837
-0.098421,0.010224,-0.037079,0.0099184,0.067597,-0.036164,-0.21653,-0.0074769
-0.14939,0.060273,-0.13535,-0.16342,0.074006,-0.12741,-0.44572,0.018158
-0.11826,0.19394,-0.14725,-0.066987,0.074006,-0.04593,-0.33768,0.10178
-0.11429,0.16129,-0.08072,-0.043488,0.043793,0.06363,0.21897,0.17929
-0.13199,0.052644,-0.090486,-0.27909,-0.033722,0.057527,0.30961,0.22873
-0.08011,0.016022,-0.10422,-0.3679,-0.103,0.037385,0.15824,0.15824
-0.10208,0.029145,-0.11612,0.58274,-0.018158,-0.0074769,0.1323,0.061189
-0.055695,0.016632,-0.078889,-0.08072,0.0019837,-0.016327,-0.0383,0.091402
0.059968,-0.11368,-0.05478,-0.29343,-0.10697,0.070649,-0.062104,0.13596
0.077363,-0.08011,-0.0077821,-0.17166,-0.073396,0.027924,0.10208,0.0099184
0.020294,-0.073396,0.015412,-0.18692,-0.068513,0.1088,0.18173,-0.084382
0.024262,-0.15152,0.0080873,0.11154,-0.0050355,0.22599,0.20645,-0.018158
0.026093,-0.17075,0.016327,-0.014496,0.053254,0.21622,0.034943,0.0056458
0.02884,-0.1561,-0.018463,-0.25498,0.11307,0.19699,-0.18021,-0.027619
0.032807,-0.074617,-0.044709,-0.0019837,0.12558,-0.025483,-0.13169,-0.08072
-0.030671,0.043183,-0.059968,-0.048371,0.06424,-0.64164,0.12589,-0.11948
-0.04715,0.070039,-0.067903,-0.074311,-0.041047,-0.17258,0.11826,-0.1091
-0.041047,0.066072,-0.094453,-0.060883,-0.010224,0.15793,-0.18662,-0.074617
-0.12558,0.12528,-0.08957,-0.075837,-0.002594,-0.49577,-0.3566,-0.062715
-0.099336,-0.018158,-0.08835,-0.078889,-0.02121,-0.28641,0.0047303,-0.027008
-0.012665,-0.065461,-0.11734,-0.12314,-0.035859,0.29191,0.17044,0.056306
-0.093538,0.066682,-0.13107,-0.18814,-0.0053407,0.21622,0.11063,0.06363
-0.099947,0.018158,-0.10239,-0.19577,0.10361,0.067292,-0.024872,0.083772
-0.08896,-0.024262,-0.11093,-0.11307,0.051728,-0.064546,-0.089876,0.10422
-0.018463,-0.058747,-0.058747,-0.070344,-0.0972,0.18601,0.18875,0.039216
0.00045777,0.012665,-0.072175,-0.075837,-0.0062562,0.11582,0.017853,0.061494
0.00045777,-0.072175,0.035554,-0.05417,-0.034333,0.027314,-0.11398,0.011444
0.059663,-0.11398,0.039521,-0.014801,-0.033417,0.22873,0.081331,-0.00045777
0.068208,-0.078279,-0.026703,-0.027314,0.019684,0.14298,0.26047,-0.029145
0.093538,-0.083772,0.017243,-0.014801,0.02884,0.050813,0.38712,-0.047456
0.14206,-0.23209,0.025483,-0.099947,0.013886,0.06302,-0.2742,-0.12192
0.070344,-0.25223,-0.016327,0.032807,-0.0044251,-0.14786,-0.3743,-0.15702
0.027924,-0.19486,0.041047,0.15976,0.13931,-0.82719,-0.28183,-0.1323
0.059663,-0.14694,-0.052949,-0.023041,0.27787,-0.18296,-0.80644,-0.068818
-0.037079,-0.017853,-0.15518,-0.20005,0.12009,0.34592,0.37491,0.032807
-0.095064,0.092012,-0.16922,-0.19272,-0.11795,0.21775,0.43198,0.031281
-0.1503,0.13565,-0.15763,-0.1088,-0.23758,0.40421,0.02884,0.066682
-0.16556,0.10636,-0.13107,0.0080873,-0.20432,0.42039,0.26841,0.13443
-0.095064,0.040131,-0.088045,0.037079,-0.035554,0.39902,0.24613,0.22599
-0.093538,0.051728,-0.068513,-0.37766,-0.038911,0.31418,0.015412,0.12924
-0.041962,0.024567,-0.052644,-0.07126,0.046845,-0.39811,-0.2974,0.079194
0.057527,-0.039826,-0.045624,-0.011139,0.50401,-1.8157,-0.39231,0.056001
0.033722,-0.082856,-0.051118,-0.09781,0.17899,-0.66361,-0.073701,-0.045319
-0.043793,-0.022431,-0.026703,-0.26963,-0.13169,0.70848,0.22416,-0.074617
-0.058137,-0.022431,0.011749,-0.062715,-0.074922,0.4036,0.19547,-0.030671
-0.049287,-0.069429,-0.005951,-0.041657,-0.12192,0.55192,0.22873,-0.013275
-0.063935,-0.076143,-0.0096132,-0.033417,-0.044404,0.3447,0.23636,-0.068208
-0.031586,-0.092622,-0.0074769,-0.0080873,0.031586,-0.046235,0.19791,-0.058137
-0.013581,-0.047761,-0.03769,-0.045624,0.058442,-0.14023,-0.14847,0.0096132
-0.014496,0.029755,-0.083467,-0.030671,-0.053559,0.032807,-0.25742,0.037079
-0.058747,0.053864,-0.077974,-0.046235,-0.070039,0.012055,-0.0056458,-0.052033
-0.053864,0.0013733,-0.087434,-0.020905,0.086519,-0.27878,0.19455,-0.0080873
-0.085298,-0.011749,-0.098726,0.070954,0.077974,0.065766,0.0795,0.046845
-0.10697,-0.023957,-0.12711,-0.011444,0.0068666,-0.0041199,-0.12802,0.065766
-0.1207,-0.049897,-0.11063,-0.36942,-0.063325,-0.012665,0.22385,0.085298
-0.022431,-0.12192,-0.078889,-0.48997,-0.061494,0.12955,0.096284,0.083772
0.076143,-0.12009,-0.088655,-0.10941,0.0099184,0.014191,-0.32456,0.094453
0.030365,0.025788,-0.1091,0.031281,0.028229,-0.019379,-0.06363,0.043183
0.0090028,0.05417,-0.055695,0.024567,-0.026703,0.025483,-0.094148,0.0053407
0.028229,-0.042878,0.0047303,0.041657,-0.032807,0.058137,-0.028229,-0.017243
0.023346,-0.040131,-0.0090028,-0.030976,0.049897,0.027924,0.035859,-0.055695
0.0383,-0.060273,0.0035096,-0.066682,0.050507,-0.0096132,-0.28794,-0.043183
0.032197,-0.16587,0.020905,0.015717,0.0038148,0.0206,-0.18784,-0.019684
0.03006,-0.21653,0.06302,-0.121,-0.030671,0.051728,0.33616,-0.023651
0.010529,-0.18387,-0.022736,0.084077,-0.0022889,0.022431,0.37613,-0.048676
-0.096895,-0.018158,-0.088045,-0.16617,0.039521,0.0047303,0.22782,-0.092317
-0.11398,0.049592,-0.099031,-0.13565,-0.027314,0.095979,0.13718,-0.024872
-0.10727,0.037079,-0.061799,-0.29862,0.069429,0.0062562,-0.29587,0.0053407
-0.17594,0.080415,-0.10483,-0.32425,0.066682,-0.032197,-0.22171,-0.00076295
-0.12802,0.095979,-0.12467,0.39048,-0.0010681,-0.13138,0.079805,0.11887
-0.14603,0.10666,-0.13535,-0.22232,0.052033,-0.1445,-0.062104,0.12284
-0.081636,0.061189,-0.12558,-0.13352,0.017548,0.089265,0.15671,0.16281
-0.012055,-0.050813,-0.099641,-0.088655,-0.0022889,0.070649,0.0010681,0.18235
0.041657,-0.031891,-0.086213,0.15427,-0.04654,0.015412,-0.30198,0.11795
0.06424,-0.040436,-0.031586,0.21195,-0.08072,0.025177,-0.010224,0.033417
0.036164,-0.075532,-0.037079,-0.30991,-0.10605,0.067292,0.10086,-0.069429
0.019379,-0.030976,-0.018769,-0.26719,-0.014191,0.11704,0.094453,-0.056611
0.039826,-0.054475,0.017853,-0.022431,0.1265,0.14664,0.18082,-0.022126
0.020905,-0.13901,-0.0028992,0.093843,0.092622,0.0795,0.12161,-0.10422
0.026093,-0.11551,-0.010224,-0.12985,0.01297,0.012665,0.089876,-0.13962
0.019989,-0.087739,-0.02182,-0.20218,0.042878,-0.17044,0.2327,-0.073091
-0.0010681,-0.11185,-0.022126,-0.12467,0.10269,-0.47868,0.19577,-0.072175
0.015412,-0.082551,-0.061799,-0.0972,0.011444,0.092927,0.21592,-0.010224
-0.013275,-0.081331,-0.073396,-0.11124,-0.034943,0.27634,-0.16312,0.0053407
0.048066,-0.075837,-0.093233,-0.060273,0.024262,0.11734,-0.55222,0.014801
0.019989,-0.011749,-0.092927,-0.14542,0.0096132,0.10666,-0.3566,0.011749
-0.02945,0.0053407,-0.11368,-0.16587,0.032807,0.038911,-0.036774,0.0038148
-0.075227,0.017853,-0.0972,0.32059,0.042267,-0.63798,-0.077058,0.02121
-0.11612,0.032197,-0.10147,-0.044404,0.060578,-0.48661,0.084382,0.023651
-0.15488,0.07126,-0.12314,-0.099031,-0.029145,0.27268,0.39872,0.075227
-0.15152,0.10941,-0.085298,-0.25193,-0.057221,0.22141,-0.066987,0.084077
-0.05478,0.0022889,-0.047761,0.014801,-0.076753,0.27756,-0.10575,0.08835
-0.053864,-0.059358,-0.00076295,-0.1445,-0.011139,0.2504,0.15457,0.053864
-0.084077,-0.069429,-0.0013733,-0.098421,0.05417,0.19547,0.19669,-0.01236
-0.025483,-0.082551,-0.0083925,-0.095064,0.0080873,0.262,0.15732,0.011749
-0.013275,-0.084688,-0.0096132,-0.085603,0.014801,-0.13382,-0.35416,-0.069429
0.0074769,-0.077974,-0.034943,-0.103,-0.042573,-1.0732,-0.38621,-0.089265
0.039521,-0.070344,-0.014191,-0.094759,-0.056001,-0.29099,-0.013275,-0.024872
0.056306,-0.075837,-0.034333,-0.045014,-0.016632,0.4622,0.068208,0.015106
0.035248,-0.072786,-0.057221,0.02884,0.066377,0.10056,-0.044404,0.035859
-0.022431,-0.056611,-0.074006,0.043183,0.077974,0.10391,0.29587,0.023651
-0.061494,-0.020905,-0.12772,-0.095064,0.0383,0.13596,0.53056,0.022126
-0.048981,-0.010224,-0.121,-0.16678,-0.02121,0.12497,0.35508,-0.011444
-0.096895,0.073091,-0.13931,-0.30533,-0.026398,0.16922,0.14328,-0.058747
-0.091096,0.022736,-0.091096,-0.15213,-0.0080873,0.093233,-0.31968,-0.01236
-0.050813,0.0099184,-0.031891,-0.31937,-0.033417,0.076448,-0.73198,0.024262
-0.028534,0.0065614,-0.069123,-0.20493,-0.041047,0.25437,-0.13382,0.035859
-0.0083925,-0.016938,-0.06302,0.67277,-0.023041,0.068208,0.13779,0.065156
0.0047303,-0.048371,0.010529,-0.11551,-0.02884,-0.53269,-0.064851,0.096284
-0.023346,-0.16281,-0.028229,-0.19303,-0.040436,-0.013275,-0.44083,0.090791
-0.0041199,-0.20096,-0.0041199,-0.059052,0.11887,0.045624,-0.082856,0.065766
0.04715,-0.047761,-0.0068666,-0.078279,0.21714,-0.7686,0.25223,0.064546
0.081636,-0.076143,-0.024567,-0.084688,0.085298,-0.09781,0.19059,-0.0065614
0.027924,-0.091707,-0.044709,0.015106,-0.02945,0.39963,0.35447,-0.043183
-0.056916,0.086519,-0.046845,0.085603,-0.026703,0.069123,0.2681,-0.0080873
-0.057527,0.032502,-0.056611,-0.22873,-0.047761,0.081331,0.23148,0.040436
-0.088045,0.0047303,-0.027619,-0.11246,-0.0096132,0.10391,0.17014,-0.058137
-0.093843,-0.058137,-0.07248,-0.058442,0.057527,0.28611,-0.11215,-0.086213
-0.044709,-0.073701,-0.12345,-0.16953,0.051118,0.32212,-0.12467,-0.10452
-0.00076295,-0.032502,-0.12161,-0.13962,0.011444,0.060273,0.11063,-0.11154
-0.023651,-0.095979,-0.039216,0.048676,-0.057832,0.036774,-0.011444,-0.01236
-0.062104,-0.067903,-0.10941,-0.2678,0.098421,-0.23331,-0.26658,0.12619
-0.029145,-0.061494,-0.12284,-0.24491,0.11276,-0.092012,0.11704,0.17685
-0.024262,0.022431,-0.11643,-0.093843,-0.091402,-0.10208,0.14878,0.15427
-0.046845,0.12009,-0.084077,-0.13931,-0.093233,-0.30259,-0.078279,0.068208
-0.050813,0.081331,-0.031891,0.13169,-0.056916,0.049592,0.14145,0.017243
-0.039216,-0.011749,0.0056458,0.19028,-0.02945,0.1326,0.090181,0.012055
0.011139,-0.076753,-0.0038148,0.065156,0.0383,-0.10941,-0.41093,-0.043183
0.033417,-0.10452,-0.00015259,-0.050507,0.088045,-0.021515,-0.57847,-0.08835
0.031281,-0.070649,0.017243,-0.093538,0.02182,0.19821,0.13657,-0.08957
0.013275,-0.045319,-0.023651,-0.31754,-0.019684,0.14023,0.51957,-0.10452
0.026093,-0.054475,-0.025483,-0.18173,-0.012665,0.099031,0.27543,-0.030976
0.04654,-0.096284,-0.061799,0.044099,0.02182,-0.017243,0.065156,0.10239
0.077974,-0.13382,-0.092622,-0.055695,0.017243,-0.11826,-0.18387,0.025177
0.028229,-0.12894,-0.10941,-0.18997,-0.087434,-0.057832,-0.31846,-0.031281
-0.06302,-0.058442,-0.092927,-0.061799,-0.058442,0.14023,0.043488,-0.064851
-0.12741,0.12558,-0.103,-0.041047,0.03769,0.16831,0.16098,-0.03769
-0.10819,0.055695,-0.11551,-0.059052,-0.009308,0.17136,-0.040742,0.0038148
-0.096284,0.036469,-0.089265,-0.15122,0.24582,0.034638,-0.099947,0.0047303
-0.073701,0.051728,-0.091402,-0.041047,0.20829,0.25772,0.086824,-0.0086976
-0.051118,0.030671,-0.089265,-0.0053407,-0.19486,0.056306,0.13931,0.0383
-0.13565,0.055695,-0.052644,-0.071565,-0.082246,-0.39384,-0.15396,0.023957
-0.15274,0.0383,-0.031891,-0.12039,0.15915,-0.53544,0.031891,0.10819
-0.04654,-0.086519,0.00015259,-0.11765,0.11032,-0.67369,0.20096,0.20981
-0.020905,-0.093538,-0.005951,-0.084993,-0.067292,0.11185,0.034943,0.10361
-0.064851,-0.059968,-0.0074769,-0.044404,-0.061799,0.28428,-0.28061,0.0035096
-0.014496,-0.098726,0.019684,0.14206,-0.030671,0.15946,-0.014496,0.065156
0.0080873,-0.10025,-0.013886,-0.36149,-0.0071717,0.14267,0.13474,0.082246
0.043793,-0.14755,0.010224,-0.081636,0.017243,0.088655,0.10544,0.013581
-0.011139,-0.103,-0.065766,0.0074769,0.03769,0.084993,0.051118,-0.002594
-0.012665,-0.080415,-0.094453,-0.06302,0.037995,0.027314,-0.0028992,-0.053864
-0.002594,-0.042878,-0.103,-0.084382,-0.0022889,0.067292,0.022126,-0.049897
0.016632,-0.041962,-0.13291,-0.090486,-0.038911,0.19394,0.074617,-0.010834
0.016022,0.0053407,-0.13046,-0.096284,-0.031586,0.16037,0.05417,-0.01236
0.026093,0.023957,-0.11063,-0.1146,-0.019074,0.07126,-0.0050355,-0.02884
0.03006,0.028534,-0.094148,-0.085908,-0.058442,0.06363,0.041962,0.0077821
-0.030976,0.075837,-0.092622,0.049592,-0.02884,-0.10544,-0.026398,-0.0041199
-0.056916,0.0032044,-0.057832,0.090791,0.047456,-0.61387,-0.1268,-0.00045777
-0.027619,-0.010834,-0.039216,-0.31266,0.047761,-0.19913,0.0090028,0.017853
-0.0047303,-0.016632,-0.022431,-0.18204,0.067292,0.2092,0.12619,-0.030976
-0.023651,-0.09659,0.0206,-0.054475,0.057527,0.13535,0.053864,-0.048676
0.025177,-0.12772,-0.0053407,-0.19821,-0.017243,0.078889,-0.02121,-0.01236
0.066377,-0.15854,0.010224,0.35691,-0.08957,0.074617,0.030976,-0.025483
-0.025788,-0.11154,-0.01236,-0.14481,-0.065156,0.022736,0.0099184,-0.086213
-0.069123,-0.036164,-0.027008,-0.18082,0.062409,0.016938,-0.2092,-0.014801
0.023041,-0.065461,-0.050813,0.032502,0.13657,0.23056,-0.051728,0.061799
0.020294,-0.071565,-0.072175,-0.11521,0.084688,0.28489,0.25895,0.047761
-0.0010681,-0.030365,-0.084077,-0.14298,0.00076295,0.2504,0.15152,-0.015412
-0.093538,0.043183,-0.10483,0.057527,0.070649,0.1976,-0.036774,0.0053407
-0.14542,0.079805,-0.099031,-0.068513,0.1265,-0.2562,-0.31724,0.032807
-0.11154,0.13993,-0.13138,-0.17594,0.095979,-1.1348,-0.47196,0.073396
-0.10544,0.087739,-0.11917,-0.1387,-0.0013733,-0.62394,-0.20676,0.037995
-0.17044,0.0071717,-0.094759,-0.12467,-0.13993,0.48386,0.33127,0.0077821
-0.16403,-0.026703,-0.074922,-0.1268,-0.10483,0.24613,0.24308,0.039521
-0.093843,-0.12192,0.00045777,-0.049592,-0.092012,0.17411,0.14084,0.10025
-0.051728,-0.098116,-0.013581,0.025788,-0.076143,0.16373,0.21256,0.11246
0.013886,-0.059968,-0.030976,-0.030365,-0.035248,0.13901,0.24918,0.12192
0.023346,-0.054475,-0.034638,-0.23178,0.0074769,0.11093,0.22721,0.086824
0.070649,-0.087739,-0.00076295,-0.056611,0.0035096,0.044709,0.04715,0.037995
0.038911,-0.063325,-0.013581,0.18112,0.044404,-0.048981,-0.4506,-0.029145
-0.017548,-0.017853,-0.044404,-0.18784,0.1149,-0.047761,0.22721,-0.009308
0.02121,-0.068513,0.016327,-0.059663,0.0077821,0.08072,0.26963,0.024872
0.015106,-0.048371,-0.056916,-0.15976,0.02884,0.01236,0.045014,-0.055695
-0.0062562,0.024567,-0.084993,-0.17655,0.059052,-0.04715,-0.62821,-0.19608
-0.061799,0.048676,-0.084993,-0.06424,0.012055,-0.010224,-0.89097,-0.1799
-0.04654,-0.018463,-0.11124,-0.065156,-0.0013733,0.051118,0.24826,-0.024262
0.041047,-0.13626,-0.1033,-0.065766,-0.016632,0.04654,0.16709,0.027314
0.079805,-0.15,-0.10727,-0.022736,-0.0053407,-0.027008,0.11826,0.051423
-0.0022889,-0.050507,-0.097505,-0.027008,-0.0022889,-0.0022889,0.39261,0.031586
-0.052949,-0.01236,-0.091402,-0.067597,-0.016632,0.10544,0.3917,0.036774
-0.041352,-0.00076295,-0.086213,-0.025177,-0.025788,0.17105,0.29343,0.16464
-0.020905,-0.0077821,-0.033112,-0.22965,-0.038911,0.1387,0.086824,0.10819
-0.047761,-0.018158,-0.021515,0.015412,-0.12039,0.045624,-0.11734,0.043183
-0.033417,-0.011749,-0.010529,0.064851,0.044099,0.045624,0.085603,0.081941
0.06363,-0.15946,0.012665,0.0074769,0.14664,-0.10025,0.13809,0.086519
0.027008,-0.1323,-0.0062562,-0.25162,0.066072,-0.65568,-0.19852,-0.050813
-0.069429,-0.025788,-0.028229,-0.29496,0.030976,-0.19883,0.063935,-0.14389
-0.083162,0.015106,-0.077974,-0.046235,0.020905,0.4155,-0.0090028,-0.1207
-0.0795,-0.048676,-0.031586,0.044099,0.018769,0.43717,-0.67796,-0.15366
-0.033112,-0.04593,-0.062409,-0.09659,0.0038148,0.16709,-0.31113,-0.061799
-0.0068666,0.010529,-0.084993,-0.12528,0.034028,-0.36088,0.17685,-0.023651
-0.049287,0.02121,-0.076753,-0.011139,0.1265,-0.52628,-0.087434,-0.067903
-0.02945,0.0071717,-0.092927,-0.067597,0.078279,0.094453,-0.24643,-0.011139
-0.024872,0.025483,-0.0972,-0.24735,0.015717,-0.050202,-0.2031,0.030365
-0.0056458,0.0056458,-0.090791,-0.53178,-0.061189,-0.20432,0.067292,0.079194
0.052338,0.015106,-0.06424,0.36179,-0.011139,0.048066,0.38926,0.103
-0.064851,0.061494,-0.074922,0.55467,0.15579,0.087129,0.31662,0.0795
-0.037079,-0.0013733,-0.092012,-0.24338,-0.011444,0.087129,-0.11704,0.11398
0.017548,-0.040436,-0.0383,-0.16617,-0.16373,0.14481,-0.3621,0.1149
-0.015412,-0.032807,-0.039826,-0.11887,-0.025788,0.13291,0.068513,-0.0074769
-0.049287,-0.056611,-0.027924,-0.088655,-0.034943,0.19028,0.31876,-0.02884
-0.10605,-0.092012,0.0047303,-0.093233,-0.027008,0.15671,0.17227,-0.08957
-0.092927,-0.13138,0.013886,-0.081025,-0.00045777,0.095979,0.086824,-0.1033
-0.08957,-0.081941,-0.024262,-0.066682,0.0053407,0.065156,-0.017548,-0.082246
-0.04715,-0.1088,-0.00015259,-0.047761,0.017853,-0.047456,-0.036469,0.016022
0.033722,-0.1387,-0.039216,-0.051118,0.069429,-0.52415,-0.10178,0.040436
0.0016785,-0.060883,-0.08011,-0.087739,0.096895,-0.2388,-0.041962,0.019379
0.019684,-0.018158,-0.084688,-0.058442,0.040131,0.21439,0.10056,0.077363
0.029755,0.014496,-0.096284,-0.084993,-0.013275,0.1265,0.10422,0.087434
-0.028534,0.025788,-0.064851,-0.1033,-0.0090028,0.17136,0.2739,0.044404
-0.067597,-0.060883,-0.12558,-0.11978,-0.030365,0.20645,0.24338,0.0206
-0.14664,0.074006,-0.13962,-0.12375,-0.032807,0.12802,0.10666,0.00076295
-0.17411,0.14328,-0.10666,-0.082856,-0.02121,0.088655,-0.074617,0.082856
-0.081025,0.076753,-0.10544,0.024872,-0.062715,0.043488,-0.32456,0.20798
0.005951,-0.037995,-0.038911,-0.14481,-0.031281,-0.42954,-0.23697,0.13901
0.0028992,-0.053559,-0.06424,-0.26291,0.027008,-0.46159,0.009308,-0.025788
0.0096132,-0.08957,-0.010834,-0.10056,-0.0056458,0.17502,0.16556,-0.079194
0.087434,-0.20218,0.0013733,-0.11734,-0.034638,0.26474,0.15122,0.0071717
0.076448,-0.10422,-0.0090028,-0.059663,-0.048981,0.045319,-0.047761,-0.016632
-0.034333,-0.11032,0.036469,0.062715,-0.039521,0.065766,-0.034943,-0.084382
-0.014801,-0.10086,-0.020294,-0.042878,0.17105,0.0053407,-0.028534,-0.053864
0.045624,-0.11154,-0.010529,-0.13687,0.1854,-0.017243,0.066072,-0.014496
0.03006,-0.13138,-0.0065614,-0.0065614,-0.032807,-0.0032044,0.046235,-0.04593
0.016938,-0.074006,-0.065766,0.1854,-0.095674,-0.0028992,0.094148,-0.042573
0.0086976,0.0056458,-0.11063,-0.098421,0.093538,0.093233,0.075837,-0.035859
0.0038148,0.049592,-0.11978,-0.086824,0.096284,0.28367,0.15702,-0.01297
-0.053559,0.066072,-0.12131,-0.17685,0.022126,0.25956,0.15702,-0.015412
-0.10056,0.094759,-0.12436,-0.29923,0.084077,0.17563,-0.26474,-0.010834
-0.10178,0.083772,-0.10513,-0.092927,-0.028534,0.059663,-0.24582,0.033417
-0.091707,0.022431,-0.08896,0.010529,0.0096132,-0.87541,-0.26963,0.025483
-0.076753,0.016632,-0.089265,-0.05417,-0.00076295,-1.0069,-0.24552,0.020905
-0.036469,-0.015412,-0.06424,-0.10147,-0.096895,0.31022,-0.0053407,0.066682
-0.058747,-0.021515,-0.033112,-0.081331,-0.070954,0.31449,0.14817,0.053559
-0.060883,-0.056611,-0.00015259,0.02884,0.0080873,0.17227,0.15518,0.075532
-0.00045777,-0.075532,0.016632,-0.14328,0.050202,0.14206,0.26535,0.072786
0.016632,-0.051728,-0.0041199,-0.11063,0.009308,0.076448,0.30747,0.0056458
0.013886,-0.10269,0.0035096,-0.15885,-0.014801,0.10269,0.089265,0.0099184
0.018769,-0.10025,-0.019684,-0.093538,0.063935,0.069123,-0.082246,-0.015106
0.019684,-0.11582,-0.025483,0.27481,0.056001,0.058137,0.066377,-0.053864
0.035554,-0.059968,-0.066987,-0.41886,-0.022736,0.046235,0.2504,-0.023346
0.067903,-0.07248,-0.017548,0.34897,-0.00076295,0.024872,0.16861,-0.010224
0.015412,-0.046235,-0.063325,-0.15579,0.11795,0.005951,-0.21408,-0.062715
-0.030671,0.032502,-0.14298,-0.28214,0.10025,-0.079805,-0.98955,-0.042573
-0.099641,0.030671,-0.1384,-0.12985,-0.0032044,-0.16617,-0.67552,0.031281
-0.12192,-0.0016785,-0.12345,-0.06363,-0.037385,0.0099184,0.39719,0.12467
-0.13474,-0.053864,-0.068513,-0.030976,-0.095979,0.14908,0.44175,0.11246
-0.11032,-0.077363,-0.073396,-0.010224,-0.1445,0.062715,0.2678,0.081331
-0.10971,-0.010834,-0.090181,-0.083467,-0.1091,0.02121,0.16434,0.03006
-0.12345,0.092012,-0.057832,-0.08835,-0.031586,0.0028992,0.041352,0.020905
-0.05539,0.075837,-0.031586,-0.10697,0.012055,-0.0028992,0.10361,0.070039
-0.024262,0.033112,-0.015717,-0.16709,0.07126,-0.023346,0.053254,0.016632
-0.020294,-0.063935,-0.0022889,-0.050202,0.33433,-0.016938,-0.074006,-0.043183
-0.04715,-0.081941,-0.014801,-0.031281,0.11002,0.18509,-0.46128,-0.022736
0.0077821,-0.15763,-0.0053407,-0.0074769,-0.096895,0.21408,-0.013581,0.066377
0.068208,-0.18296,-0.0062562,0.012665,-0.087129,0.1735,0.14328,0.039521
0.033112,-0.14084,-0.014191,0.05478,-0.096284,0.11185,0.14633,0.022736
0.0056458,-0.067597,-0.081331,-0.21927,0.085298,-0.17288,-0.23941,-0.016632
0.059052,-0.03769,-0.092012,-0.13077,0.31205,-0.74571,-0.41123,-0.033112
0.0071717,0.029755,-0.11093,-0.095674,0.14328,-0.35111,0.045624,-0.089876
-0.050813,0.036469,-0.14084,-0.08835,-0.11398,0.24735,0.31052,-0.066682
-0.07187,0.015106,-0.12314,-0.055085,-0.10727,0.18967,0.21103,-0.015412
-0.08011,0.043183,-0.10727,-0.059052,-0.068513,0.10605,0.041352,0.016632
-0.051728,0.026093,-0.092317,-0.068818,-0.085603,-0.013275,0.002594,0.027619
-0.0383,-0.0013733,-0.069429,-0.061799,-0.0795,-0.0056458,0.058137,0.015717
-0.04715,-0.031891,-0.034943,-0.14206,-0.056916,0.067597,0.25711,0.030365
-0.0068666,-0.017548,-0.034943,-0.3621,-0.025483,0.21958,0.327,0.052949
0.11032,-0.11002,0.018158,-0.21286,-0.0022889,0.30838,0.072175,0.023346
0.14237,-0.078889,0.022431,0.095369,0.013275,-0.035859,-0.15579,-0.014496
0.16037,-0.11795,-0.03006,0.027314,0.039216,-0.215,-0.3682,-0.044404
0.1387,-0.10605,-0.029755,0.026093,0.078279,-0.036469,-0.099336,-0.02945
0.097505,-0.11185,0.011444,0.10544,0.11582,0.032197,0.34806,-0.057221
0.042878,-0.1442,-0.012055,0.083467,0.084688,-0.027314,0.11612,-0.11826
-0.17166,0.028534,-0.082246,-0.21469,0.0206,-0.048066,-0.53574,-0.11856
-0.22232,0.083162,-0.082856,-0.38407,-0.0096132,-0.0096132,-0.25254,-0.04593
-0.22721,-0.023651,-0.052644,0.34226,-0.0041199,0.019074,0.23331,0.047456
-0.22751,-0.0086976,-0.10849,-0.19944,0.050507,0.046845,0.18051,0.051728
-0.16495,0.018158,-0.12375,-0.12161,-0.015412,0.22538,0.22538,0.084382
-0.091402,0.028534,-0.12039,-0.00015259,-0.076753,0.027924,0.078279,0.13321
-0.11215,0.054475,-0.14267,0.0032044,-0.033112,0.052338,0.1323,0.13596
-0.13809,0.069123,-0.087434,-0.15061,-0.059358,0.45762,0.18173,0.079805
-0.08835,0.12741,-0.078279,-0.21012,-0.05539,0.12009,-0.029755,0.1387
0.0065614,0.061494,-0.034333,-0.10727,-0.02884,-0.018158,-0.065766,0.16617
-0.0041199,-0.044404,0.033722,0.025177,-0.10849,0.40635,0.19394,0.15427
-0.023346,-0.11856,-0.031891,-0.11093,-0.017243,0.0028992,0.18082,0.10849
0.11856,-0.24247,0.0065614,-0.22965,0.1854,-1.2819,-0.26139,0.038911
0.13046,-0.27176,-0.0090028,-0.10147,0.087434,-0.17472,-0.23941,-0.074617
0.092927,-0.26902,0.0019837,-0.096284,0.14054,0.11704,-0.3032,-0.18845
0.044099,-0.087434,-0.015412,0.27481,0.13565,-1.0686,-0.28702,-0.20249
0.043183,-0.068513,-0.033722,-0.052338,0.052033,-0.3975,0.0096132,-0.17227
-0.016632,0.017853,-0.070649,-0.14084,0.059052,0.43931,-0.039216,-0.12619
-0.031281,0.087739,-0.084993,-0.092317,0.023346,0.26474,-0.26596,-0.086213
-0.043793,0.1207,-0.09659,-0.1033,-0.015106,0.21134,-0.28122,-0.057832
-0.075837,0.050202,-0.11704,-0.11887,-0.034638,0.19821,0.049287,0.0038148
-0.068818,-0.011749,-0.12161,-0.11948,-0.090791,0.22812,0.45792,0.076753
-0.041047,-0.030976,-0.1268,-0.10636,-0.0795,0.15885,0.1735,0.073396
-0.020294,-0.0053407,-0.094453,-0.10452,-0.044709,0.091096,-0.020294,0.08011
-0.044404,-0.016938,-0.092012,-0.083467,-0.039521,0.073701,0.067292,0.052949
-0.093538,0.002594,-0.049287,-0.056916,-0.028229,0.084993,0.20981,0.059052
-0.069429,0.0096132,-0.029145,-0.049592,-0.0047303,0.11368,0.41184,0.10483
0.0032044,-0.067903,-0.02182,-0.082246,0.013581,0.084382,0.17838,0.10178
0.019989,-0.080415,-0.0053407,-0.062715,-0.010834,0.042878,-0.079194,0.0099184
0.017548,-0.0795,-0.0056458,-0.068208,0.0035096,-0.039216,-0.44694,-0.057527
0.018158,-0.099641,0.0013733,-0.043183,0.061189,0.017243,-0.22568,-0.061189
0.022126,-0.084077,-0.027924,-0.052949,0.10605,0.056916,0.17411,-0.049897
0.057221,-0.10849,0.01236,-0.028229,0.059358,-0.016022,0.10269,-0.062715
0.041962,-0.099641,-0.029755,-0.037385,0.027924,-0.059968,0.086213,-0.07187
-0.0035096,-0.063935,-0.061799,-0.03769,0.032807,-0.05539,0.06424,-0.086213
-0.053254,0.0062562,-0.099336,-0.11093,-0.011444,0.016938,0.036774,0.027619
-0.10544,0.072175,-0.12314,-0.34043,-0.056611,0.054475,0.32609,0.121
-0.16831,0.099336,-0.11765,-0.3035,-0.02945,0.023957,0.085908,0.13046
-0.26261,0.074617,-0.11307,0.49058,0.071565,-0.035554,-0.34836,0.091402
-0.22629,0.046235,-0.11612,-0.05478,0.051118,-0.086213,-0.75395,0.090791
-0.010224,-0.050202,-0.099641,-0.30625,-0.11185,0.081636,0.092317,0.22385
0.027008,-0.00015259,-0.10819,-0.69444,-0.12375,0.17044,0.49149,0.13718
-0.045319,-0.019379,0.014496,0.59586,0.031281,0.06363,0.39292,0.065461
-0.002594,-0.16434,0.002594,-0.1796,0.19638,-0.031281,0.37675,0.057832
0.10056,-0.25193,-0.031891,-0.22934,-0.074617,0.062104,0.24613,0.08011
0.05417,-0.11398,0.0071717,0.039826,-0.11978,0.054475,-0.5803,-0.11704
0.014191,-0.059358,0.0053407,0.13413,0.10483,-0.15091,-0.89342,-0.14633
0.049592,-0.053864,0.012665,-0.073091,0.17441,-0.13687,-0.071565,-0.051118
0.11215,-0.1564,0.0071717,0.10208,0.027008,-0.038911,0.21988,-0.065461
0.048371,-0.10941,-0.050507,-0.16526,0.032197,-0.032197,0.09781,-0.12955
0.027008,-0.037385,-0.068513,-0.1207,0.074617,-0.027008,0.17777,-0.12863
0.005951,0.067903,-0.10636,-0.091402,-0.018158,0.050813,0.30472,-0.0795
-0.033417,0.090486,-0.12253,-0.1799,-0.015106,0.034333,0.18173,-0.04654
-0.055695,0.028229,-0.1033,0.02884,-0.039826,0.002594,-0.058137,0.0090028
-0.092927,0.017243,-0.10147,-0.12985,-0.030671,-0.0050355,-0.1857,-0.058137
-0.13779,0.059663,-0.11429,-0.16251,-0.00076295,-0.030365,-0.081025,-0.02884
-0.18845,0.076753,-0.1033,-0.11307,0.0032044,-0.17319,-0.17105,0.087434
-0.1445,0.050507,-0.09659,-0.060578,-0.045319,0.041047,-0.0044251,0.14115
-0.059663,-0.032197,-0.10941,-0.036469,-0.0206,0.21866,0.40391,0.12406
-0.035859,-0.024567,-0.052949,-0.077363,-0.059052,0.20432,0.56535,0.093538
-0.012665,-0.0065614,-0.029755,-0.10636,-0.13718,0.072175,0.041352,0.084688
0.073701,-0.04654,0.026703,-0.047761,-0.0010681,-0.061799,-0.64775,0.076448
0.088045,-0.15,0.034638,-0.096895,0.090791,-0.012055,-0.1091,0.045319
0.072175,-0.11337,-0.0038148,-0.13291,0.084688,-0.1677,0.048066,-0.042878
0.020905,-0.098421,-0.0035096,-0.077058,0.11032,-0.61845,-0.17105,-0.13046
0.025177,-0.11154,-0.030671,-0.041352,0.051423,-0.083772,0.15274,-0.12345
0.0383,-0.11551,-0.039216,-0.17899,-0.0083925,0.43107,0.26505,-0.074617
0.035248,-0.068513,-0.057221,-0.23117,-0.013581,0.40482,0.20401,-0.012665
-0.072175,0.013581,-0.082246,-0.019379,0.023041,0.046235,0.22416,-0.039521
-0.093538,0.018158,-0.12772,0.0096132,0.046235,-0.13382,-0.34012,-0.016632
-0.12253,0.013581,-0.11551,0.030976,0.020905,-0.065156,-0.84459,0.026703
-0.099336,-0.014191,-0.077974,0.090181,-0.019379,-0.052033,-0.30228,0.10666
-0.15946,0.066682,-0.13291,-0.096284,-0.074006,0.049287,0.17166,0.11246
-0.14633,0.035859,-0.098726,0.069734,-0.12528,0.05539,0.13443,0.044099
-0.013581,-0.082551,-0.062409,-0.28794,-0.10971,0.064851,0.094148,0.095674
0.013275,-0.074922,-0.052644,-0.23728,-0.035859,0.059052,0.2501,0.056611
-0.017548,-0.068818,-0.016632,0.076143,0.16495,0.086519,0.39353,0.0099184
-0.057221,-0.043793,-0.042573,-0.00076295,0.3508,0.029145,0.33097,-0.025177
-0.047456,-0.054475,-0.016938,-0.069734,0.005951,0.0028992,0.13382,0.036164
-0.032502,-0.071565,-0.0019837,-0.21469,-0.071565,-0.0074769,-0.1268,0.010834
0.026093,-0.074617,0.0047303,-0.20584,-0.030365,0.083772,-0.28916,-0.044404
0.016022,0.041352,-0.027924,-0.049287,-0.023651,0.12558,-0.1207,-0.082856
0.051423,-0.013581,-0.023957,-0.046845,0.017243,0.018769,0.0383,-0.051423
0.0795,-0.060578,-0.050813,0.0090028,0.035859,0.04715,0.048066,-0.02121
0.015717,-0.0074769,-0.060578,-0.012665,0.027314,0.078584,-0.031281,-0.026398
-0.019379,0.019379,-0.083467,0.10025,0.054475,-0.63127,0.018769,0.034028
-0.067597,-0.0022889,-0.1265,0.047761,0.002594,-0.45457,-0.027314,0.098421
-0.056611,0.02945,-0.14145,-0.28794,-0.030976,0.35294,-0.052644,0.1088
-0.037079,-0.014191,-0.13169,-0.43015,-0.0090028,0.42313,-0.0032044,0.059968
-0.041047,-0.08896,-0.069429,-0.07126,-0.019074,0.38529,0.070344,0.058442
-0.025177,-0.10178,-0.08011,0.13352,-0.077363,0.44083,0.13931,0.054475
-0.040742,-0.050813,-0.051118,-0.0044251,-0.061494,0.12253,-0.00076295,-0.00045777
0.011139,-0.11154,-0.036774,-0.1146,0.0041199,-1.0393,-0.1799,-0.045319
-0.067903,-0.026093,-0.034638,-0.048676,0.0053407,-0.37095,-0.070649,-0.034638
-0.079805,-0.017548,-0.0016785,0.023041,-0.014496,0.43534,0.30411,0.039216
-0.062104,-0.014496,-0.0038148,-0.042573,0.041047,-0.12039,0.1442,0.02884
-0.076753,-0.063325,-0.012055,-0.27604,0.14817,-1.0753,-0.26596,-0.055695
-0.10605,-0.054475,-0.014191,0.26627,0.075532,-0.11673,-0.018463,-0.097505
-0.018769,-0.062409,-0.035859,-0.1857,-0.036774,0.57755,-0.16587,-0.0090028
0.082551,-0.11154,-0.020294,0.13107,-0.11795,0.25345,-0.55467,-0.00045777
0.019989,-0.02945,-0.028229,-0.20188,-0.077363,0.12985,-0.16648,-0.11704
0.0041199,-0.14176,-0.026703,-0.13962,0.28092,0.049592,0.24552,-0.074922
0.0056458,-0.097505,-0.10971,-0.089876,0.25406,0.12955,0.3505,-0.049897
-0.024567,-0.0041199,-0.12528,-0.1619,-0.020294,0.12924,0.18875,-0.024262
-0.034638,0.082246,-0.14878,-0.16007,-0.073091,0.0206,-0.1091,0.018158
-0.072786,0.14817,-0.13504,-0.14878,-0.083772,0.029145,0.20737,0.038911
-0.033112,0.11276,-0.10239,-0.1326,-0.10361,0.10575,0.32212,0.084688
-0.030365,0.0013733,-0.073091,-0.018769,-0.095369,0.12711,0.30961,0.13046
-0.039826,-0.028534,-0.077058,-0.052338,-0.041047,0.037079,0.34531,0.10849
-0.057832,-0.038605,-0.056916,-0.069123,-0.010834,-0.040436,-0.15183,0.067903
-0.048981,-0.066377,-0.0383,-0.099031,-0.016632,-0.070649,-0.80247,0.068513
-0.022736,-0.12985,0.0044251,-0.037079,0.019684,0.034028,-0.099947,0.061494
-0.039521,-0.13626,0.0077821,-0.0047303,0.067292,0.036774,0.034333,0.0068666
-0.010529,-0.05539,-0.023041,-0.030976,0.058442,-0.025177,-0.20218,0.02182
-0.014191,0.00045777,0.00015259,0.0047303,0.019074,0.025483,0.099947,0.04593
0.023346,-0.049897,-0.018769,-0.034943,0.017243,0.026093,0.14481,-0.01297
0.049592,-0.074311,-0.027619,-0.19333,0.03006,0.00045777,0.14084,-0.092012
0.02945,-0.034638,-0.059358,-0.064546,-0.014801,0.044404,0.14664,-0.11185
0.056611,-0.11032,-0.070954,-0.055695,0.0074769,0.087434,0.11276,-0.082246
0.033722,-0.029755,-0.093233,-0.103,-0.0047303,0.15915,0.11032,-0.023346
-0.043183,0.018463,-0.10422,-0.098726,-0.13107,0.086519,0.020294,-0.054475
-0.067292,0.05417,-0.12284,-0.10697,0.064546,-0.42161,-0.043488,-0.019074
-0.056916,0.040436,-0.121,-0.12467,0.090181,-0.20645,-0.049287,0.036774
-0.11826,0.052644,-0.078889,-0.10391,0.0086976,0.12985,0.081636,0.073701
-0.15274,-0.08072,-0.029755,-0.066987,-0.042573,0.077058,0.37552,0.11795
-0.14786,-0.1854,-0.06424,-0.069123,-0.016938,0.027008,0.087434,0.10452
-0.030365,-0.11337,-0.048676,-0.10391,0.032197,-0.036469,-0.53819,0.082551
0.0080873,-0.0044251,-0.027619,-0.0022889,-0.035248,0.0041199,-0.077974,0.029145
0.0090028,0.0022889,-0.025483,-0.0047303,0.0096132,0.011444,-0.54734,-0.1146
-0.018158,-0.027924,-0.00015259,0.043488,0.10941,0.024567,-0.087129,-0.0047303
-0.06363,-0.017853,-0.025788,-0.065766,0.077668,0.032807,0.21744,0.05417
-0.031586,-0.058442,-0.038911,-0.121,0.010834,0.0080873,0.040131,0.084688
-0.0068666,-0.026703,-0.03006,-0.085908,-0.019684,-0.13809,0.051728,0.0795
0.016022,-0.07248,0.0047303,0.013581,0.014191,0.0050355,0.19455,-0.0090028
0.034028,-0.068818,-0.062409,-0.11154,0.066682,0.04715,0.34287,-0.093843
0.0795,-0.091402,-0.075227,-0.33188,0.033417,0.11276,0.083772,-0.03769
0.059663,-0.067903,-0.12894,-0.19394,-0.020905,0.17227,-0.16251,-0.030976
0.032197,-0.050202,-0.12161,-0.079194,-0.052949,0.18448,-0.048981,-0.0062562
-0.009308,-0.023957,-0.11917,0.025177,-0.084077,0.22599,-0.053864,0.053559
-0.051118,0.039521,-0.084077,0.16587,-0.030671,0.12802,0.15702,0.035248
-0.030976,0.026703,-0.10422,0.046845,0.12192,-0.46189,0.17227,-0.037079
-0.081941,0.12711,-0.1091,-0.17136,0.16281,-0.78538,0.13169,-0.063935
-0.12192,0.10239,-0.065766,-0.3798,-0.11765,-0.29129,0.099641,-0.022736
-0.1091,0.019989,-0.027619,0.15122,-0.069429,0.38712,-0.67674,0.027008
-0.081941,-0.10666,0.00015259,-0.22904,0.045624,0.10117,-0.54612,0.053864
-0.10239,-0.13352,-0.0022889,-0.18357,-0.01236,-0.082246,0.22721,0.0383
-0.066682,-0.11246,-0.0019837,-0.005951,-0.014496,0.17166,0.24979,0.10636
-0.016938,-0.11002,-0.0074769,-0.0022889,0.0086976,0.11704,0.20706,0.093538
0.024872,-0.068513,-0.025483,-0.053559,0.00045777,0.040742,0.086213,-0.019684
-0.011444,-0.010834,-0.017853,0.069734,-0.075837,0.088655,0.089265,-0.073091
0.00045777,0.045319,-0.022431,-0.17929,-0.073396,0.22049,0.21347,-0.052644
0.034943,0.015717,-0.061189,-0.66361,0.1445,0.15,0.16068,-0.045624
-0.018463,-0.074617,-0.08835,0.59739,0.17441,0.048066,0.1564,-0.023346
-0.081331,-0.056306,-0.11032,0.19608,0.049897,0.10971,0.012665,0.045624
-0.045624,-0.12802,-0.094453,-0.23026,-0.103,0.045014,-0.2565,0.065461
-0.032502,-0.065766,-0.12345,-0.16709,0.065461,-0.71336,-0.36179,-0.0022889
-0.084382,0.083162,-0.11978,-0.11093,0.08011,-0.18418,-0.37034,-0.074617
-0.060883,0.019684,-0.073396,-0.056916,-0.04593,0.47623,0.079805,0.027008
-0.036774,0.017243,-0.041962,-0.10849,-0.071565,0.41337,0.27573,0.1207
-0.010224,-0.0068666,-0.076448,-0.24399,-0.059052,0.30594,0.16434,0.10025
-0.018769,-0.016022,-0.068208,-0.12497,-0.0013733,-0.39384,-0.058747,0.07187
0.025177,-0.049592,-0.032502,0.092927,-0.0013733,-1.2065,-0.18296,0.010529
0.07187,-0.12497,0.031586,0.039826,-0.10971,0.0065614,0.0071717,-0.061799
0.11826,-0.1799,0.025483,-0.12039,-0.077363,0.34257,0.12222,-0.052644
0.1503,-0.20249,-0.01236,-0.0383,0.065766,0.11307,0.14115,-0.02945
0.12222,-0.1323,-0.020905,-0.024567,0.215,0.17441,0.20462,-0.07126
0.010529,-0.074922,-0.035859,-0.092317,0.48478,0.062409,0.22019,-0.11185
-0.070039,-0.045624,-0.062715,-0.087434,0.19547,0.08896,0.16709,-0.10391
-0.10361,0.0019837,-0.088655,-0.077058,-0.17288,0.14084,-0.17624,-0.083162
-0.13413,0.0083925,-0.077363,-0.09659,-0.11185,0.067597,-0.45243,-0.054475
-0.10391,-0.016022,-0.10544,-0.11368,-0.1326,0.15946,-0.12467,0.005951
-0.081331,0.012055,-0.12375,-0.1738,-0.13474,0.28397,0.22293,0.027924
-0.10697,0.084688,-0.13443,-0.17502,-0.059663,0.085908,0.052033,0.040436
-0.1442,0.11582,-0.10117,-0.023041,-0.04593,-0.23331,-0.15183,0.061494
-0.13443,0.090181,-0.096895,-0.044709,-0.052949,0.0022889,-0.081025,0.069734
-0.12955,0.11582,-0.081941,-0.096284,-0.023041,0.0795,-0.026398,0.053864
-0.10178,0.028534,-0.026093,0.02121,-0.024872,-0.33127,-0.060883,0.015106
-0.14969,0.026093,-0.024872,-0.15122,-0.018158,0.168,0.16251,0.10239
-0.095369,-0.090181,0.011749,-0.086519,0.094148,0.20127,0.28794,0.23697
0.027008,-0.24216,0.009308,-0.036164,0.081331,-0.54948,0.13718,0.27787
0.082856,-0.19394,-0.0022889,-0.04654,0.07126,-0.48661,-0.069123,0.1146
0.035859,-0.11002,-0.024872,-0.10361,0.035554,0.47074,0.039216,0.005951
0.093843,-0.1268,-0.0047303,-0.074311,0.0077821,0.21866,0.25498,0.075227
0.10452,-0.13016,-0.056916,-0.014496,0.019074,0.021515,0.10086,-0.026703
0.027924,-0.009308,-0.077974,-0.075532,0.058442,0.030365,0.056306,-0.11765
-0.033417,0.058137,-0.084688,-0.083467,0.041352,0.0077821,0.0010681,-0.18051
-0.067903,0.062409,-0.082246,-0.041657,-0.032502,0.045624,-0.44297,-0.17411
-0.08072,0.014191,-0.067903,0.034028,-0.06363,-0.020294,-0.34379,-0.097505
-0.022126,0.015717,-0.10086,-0.062715,0.023651,-0.0972,-0.12558,-0.076753
0.026093,0.0099184,-0.13046,-0.23362,0.077668,0.014191,0.010529,-0.063325
-0.034333,-0.052644,-0.11246,-0.21744,-0.017548,-0.005951,0.23941,0.013886
-0.096284,-0.048676,-0.081331,-0.15152,-0.052033,-0.10636,-0.17868,0.092927
-0.051118,-0.044404,-0.076448,-0.033722,-0.044404,0.0099184,0.12924,0.17655
0.0056458,-0.040436,-0.030976,-0.0206,-0.15183,0.19333,0.49973,0.12497
0.052338,-0.032807,-0.022126,-0.17105,-0.11704,0.18021,0.022736,0.024872
0.039216,0.015106,-0.023651,-0.075837,0.065766,0.032197,-0.34195,-0.043488
0.045624,-0.081636,0.060273,0.35233,0.091402,-0.02884,-0.13169,-0.046845
0.0010681,-0.11429,0.024567,-0.23301,0.16098,-0.1146,0.12772,-0.05478
-0.016632,-0.12345,-0.030976,0.10361,0.19333,-0.12955,0.2855,-0.053559
-0.034943,-0.13016,0.013581,0.0028992,0.054475,-0.064546,0.04654,-0.053864
-0.067903,-0.095369,-0.064851,-0.15457,0.0065614,0.067292,-0.26261,-0.013275
-0.086213,-0.0099184,-0.13443,-0.090486,-0.056001,0.2327,-0.13382,0.030365
-0.031281,-0.03769,-0.099336,-0.002594,0.034333,0.01236,-0.16434,0.076753
-0.052949,0.04715,-0.10208,-0.47593,0.0086976,-0.026093,-0.17288,0.055085
-0.056611,0.057527,-0.093538,-0.12253,-0.04715,0.0053407,0.094148,0.019074
-0.061799,0.059663,-0.10513,-0.053254,-0.018769,0.052644,0.18326,0.07248
-0.087129,0.009308,-0.090486,0.0019837,0.011139,-0.015106,0.078279,0.1088
-0.043183,-0.053864,-0.10513,-0.099336,-0.079194,-0.050202,0.15213,0.080415
-0.099336,0.03006,-0.092012,-0.093538,-0.016938,0.0068666,0.30472,0.0071717
-0.090181,0.057221,-0.040131,-0.12863,-0.0044251,0.0972,0.5922,0.056001
-0.01297,0.015412,-0.018463,-0.040742,-0.05478,0.16739,0.60288,0.074006
0.00045777,-0.036469,-0.030365,-0.050507,0.048066,0.033112,-0.20432,-0.030671
0.0086976,-0.078279,-0.018158,-0.051423,-0.016327,0.039216,-0.85252,-0.0972
0.08011,-0.14969,-0.0090028,-0.16709,-0.033112,0.14786,-0.64439,-0.084382
0.075837,-0.1088,0.0065614,-0.23239,0.051728,-0.021515,-0.31846,-0.063325
0.053254,-0.10208,-0.010224,0.048676,0.13474,-0.7393,-0.08072,-0.13199
0.094453,-0.16434,0.002594,0.20645,0.098116,-0.15579,0.28061,-0.17288
0.050507,-0.061799,-0.066682,-0.032197,0.081331,0.23972,0.41764,-0.12314
0.015106,-0.044404,-0.042267,-0.077363,0.026093,0.15702,0.04654,-0.063935
-0.017243,-0.10971,-0.06302,-0.023346,-0.10025,0.2211,-0.087434,-0.012665
-0.084993,-0.12009,-0.13138,-0.092927,-0.064851,0.041047,0.0086976,0.018769
-0.081941,0.031281,-0.12345,-0.14206,0.098116,-0.35416,0.16648,0.074311
-0.081636,0.079805,-0.1149,-0.13718,0.057527,-0.14359,-0.027619,0.121
-0.13443,0.10056,-0.14298,-0.13565,-0.024262,0.022126,-0.17685,0.13169
-0.14847,0.12772,-0.11704,0.009308,-0.091707,0.1033,0.022736,0.17502
-0.087129,0.039216,-0.045624,-0.026093,-0.12039,0.12467,0.19181,0.19333
-0.032502,-0.068818,-0.046235,-0.33127,-0.032197,0.069429,0.121,0.15824
-0.075532,-0.038911,-0.041047,-0.16678,-0.0022889,0.045319,0.10971,0.16831
-0.1323,-0.053864,-0.025483,-0.022126,-0.1033,0.1207,0.12039,0.11917
-0.065156,-0.095674,-0.015717,-0.17258,0.093538,-0.016938,0.0077821,0.084382
0.0019837,-0.1088,-0.017548,0.36912,0.14603,-0.044404,0.0068666,0.057221
-0.06302,0.058747,0.020905,-0.17868,0.051423,0.15946,0.12039,-0.025483
-0.035859,0.044404,-0.027619,-0.051118,0.11093,0.23331,0.14298,-0.0090028
0.014801,0.025177,-0.073396,-0.054475,0.085908,0.13596,0.096895,-0.078279
-0.0080873,0.014496,-0.085298,-0.11124,-0.023651,0.2266,0.13504,-0.15671
-0.0083925,-0.086213,-0.058442,0.086824,-0.071565,0.22324,0.1564,-0.14969
0.027008,-0.19669,-0.063325,-0.23117,0.0086976,-0.28916,-0.027314,-0.15366
0.041047,-0.23148,-0.073396,-0.21683,0.072175,-0.057832,-0.18326,-0.087739
0.005951,-0.044404,-0.11612,-0.016938,0.01297,-0.20249,-0.26993,-0.052033
0.013886,-0.072786,-0.091096,-0.042878,0.027619,-1.2932,-0.20279,0.025483
0.027008,-0.082246,-0.086824,-0.10575,-0.0019837,-0.33371,-0.30228,0.060578
-0.019074,0.0096132,-0.080415,-0.060273,-0.041657,0.50584,-0.16983,0.0013733
-0.0050355,0.076448,-0.074006,-0.19699,-0.049897,0.23575,0.14023,0.048981
0.0065614,0.088655,-0.06424,-0.17899,-0.034638,0.18173,0.12406,0.073701
-0.015106,0.052644,-0.029755,0.010834,0.00045777,0.12863,0.12528,0.047456
-0.017243,-0.014496,-0.0083925,-0.035248,-0.0083925,0.10178,0.10605,0.048066
0.005951,-0.10483,0.002594,-0.040131,-0.0090028,0.090791,0.023651,-0.0068666
0.016632,-0.14755,0.014801,-0.033722,0.015717,0.072175,0.058137,-0.091707
0.026093,-0.13138,-0.032502,-0.048676,0.042267,0.014191,-0.074617,-0.10361
0.050507,-0.15549,0.0096132,-0.052644,0.034943,0.010224,-0.17777,-0.084993
0.034028,-0.11398,-0.035859,-0.046235,0.0096132,0.081636,-0.1265,-0.015412
-0.050813,-0.01297,-0.092622,-0.070344,0.032807,0.1387,-0.16556,-0.0062562
-0.087129,0.057527,-0.121,-0.087739,0.025788,0.21653,0.35019,0.0077821
-0.093233,0.12345,-0.13077,-0.039521,0.0016785,0.24857,0.44511,0.036164
-0.092317,0.085603,-0.11643,-0.040131,0.005951,0.16892,0.26841,-0.012665
-0.13962,0.067292,-0.092622,-0.022126,0.019684,-0.30686,0.2031,-0.0044251
-0.13443,0.00045777,-0.07126,-0.23209,-0.018769,-0.59281,-0.4387,0.061799
-0.12131,-0.053559,-0.091402,-0.6508,-0.077363,0.25559,-0.71336,0.17868
-0.15824,-0.0206,-0.079194,-0.22385,-0.12222,0.35935,0.20859,0.19455
-0.13413,-0.042573,-0.056306,0.58549,0.098726,-0.064546,0.29862,0.11643
-0.085603,0.005951,-0.051728,-0.13138,0.18204,-0.59434,0.10819,0.092012
-0.0086976,0.00045777,-0.0041199,-0.18936,-0.089876,-0.60075,0.057527,0.14908
0.019989,-0.035554,-0.0056458,-0.049287,-0.11826,0.15122,-0.090791,0.064546
0.029145,-0.074922,0.041657,0.095979,-0.059052,0.38285,-0.25681,-0.045319
-0.04593,-0.048981,0.010224,-0.034943,0.09659,0.083772,-0.15152,-0.094453
-0.009308,-0.15579,-0.020905,-0.033722,0.28702,0.076448,0.18326,-0.061189
0.012665,-0.12558,-0.041657,-0.02945,0.40208,0.022431,0.12253,-0.051118
0.077668,-0.074006,-0.092317,-0.043183,0.0035096,0.065766,-0.039521,-0.065156
0.11215,-0.095369,-0.070039,-0.095064,-0.082246,0.067292,0.16526,-0.08011
0.063325,-0.092927,-0.10513,-0.12375,-0.041657,0.10605,0.25559,-0.091402
0.053254,-0.044099,-0.11643,-0.12711,-0.07126,0.084993,0.1915,-0.06363
0.022736,-0.010529,-0.11887,-0.09659,-0.095369,0.11643,-0.0022889,0.035554
-0.020905,-0.028229,-0.11032,-0.079805,-0.068513,0.11337,-0.089265,0.069734
-0.052644,0.05417,-0.094759,-0.12772,-0.00045777,-0.12863,-0.44511,0.0053407
-0.086213,0.090181,-0.092012,-0.1326,-0.016327,-0.27665,-0.25589,0.062104
-0.077668,0.034333,-0.056916,-0.11093,-0.070649,-0.082551,0.17838,0.11643
-0.086824,-0.0068666,-0.041962,-0.077363,-0.073396,0.13199,0.21866,0.12284
-0.051728,-0.040742,-0.022431,-0.054475,-0.023346,0.073701,0.055695,0.084688
-0.04593,-0.068513,-0.0053407,-0.050813,0.017243,-0.047456,-0.28794,0.0016785
-0.064851,-0.088045,0.0041199,-0.053559,0.023041,0.036469,0.0068666,-0.044404
-0.012665,-0.068513,-0.0062562,-0.19364,0.020905,0.10605,0.35599,-0.052033
0.02182,-0.10849,-0.0038148,0.037079,0.005951,0.06302,0.0068666,-0.12253
0.091402,-0.16648,-0.0099184,0.16342,-0.010224,0.041657,0.048371,-0.12741
0.07248,-0.11643,-0.057221,-0.33829,0.12955,-0.062104,0.16495,-0.11704
0.084077,-0.092927,-0.059052,-0.065156,0.055085,-0.052949,-0.093843,-0.081941
0.025788,0.025788,-0.088655,0.0028992,0.0038148,-0.042267,-0.21958,-0.0795
-0.14145,0.088045,-0.11643,0.0044251,0.041962,-0.11337,-0.12253,-0.078889
-0.17105,0.067597,-0.10941,0.022126,0.025177,-0.06363,-0.15793,0.045624
-0.033722,0.0035096,-0.08835,-0.28336,0.068513,0.053254,0.17838,0.18845
-0.0795,0.067597,-0.088655,-0.28855,-0.0047303,0.22324,0.27939,0.13443
-0.12955,0.082551,-0.10605,0.0090028,-0.046845,0.42527,0.12467,0.18296
-0.1445,0.031586,-0.088655,0.039826,-0.043488,0.22934,0.13535,0.21988
-0.099641,-0.031891,-0.074006,-0.091402,-0.041962,0.085908,-0.020294,0.20981
-0.085603,-0.029755,-0.081941,-0.34348,-0.073091,0.13993,-0.032502,0.11246
-0.002594,-0.121,-0.012665,0.27176,-0.1091,0.18723,0.048371,0.034943
0.0056458,-0.15061,0.035859,-0.14176,0.009308,-0.38407,-0.0056458,-0.009308
0.0053407,-0.033417,0.0071717,-0.016938,0.15274,-1.3317,0.016938,-0.088045
0.090486,-0.072786,0.017243,0.045319,0.25772,-0.19028,0.24338,-0.068208
0.065461,-0.05417,-0.030365,-0.015412,0.17044,0.22171,0.11185,-0.1265
0.03769,-0.025483,-0.041047,-0.12131,0.019074,0.038605,-0.80217,-0.24277
0.029755,-0.089876,-0.06302,-0.10361,-0.071565,0.1796,-1.0564,-0.16953
0.06424,-0.1622,-0.04593,-0.055695,-0.067903,0.20584,0.47044,-0.060578
0.016022,-0.028229,-0.1091,-0.086519,-0.059358,0.11765,0.34623,-0.10178
-0.099947,0.11337,-0.11521,-0.1326,-0.062715,0.052949,0.20157,-0.057832
-0.13565,0.0083925,-0.072786,-0.20096,-0.028229,0.017243,0.19791,0.064546
-0.12222,-0.052644,-0.066987,-0.073701,-0.042573,0.02884,-0.12345,0.18021
-0.094453,-0.1088,-0.11643,-0.11856,0.047761,-0.0050355,0.033722,0.17258
-0.067597,-0.10086,-0.11307,-0.12894,0.13321,0.068208,0.52049,0.168
-0.081025,0.0038148,-0.081025,-0.066682,0.035859,0.24002,0.55009,0.14511
-0.05539,0.030671,-0.060578,-0.066987,-0.065461,0.29892,-0.0019837,0.097505
-0.0096132,0.039216,-0.069429,-0.05417,-0.11917,0.374,-0.13962,0.098116
0.0056458,0.010529,-0.018769,-0.059052,-0.08011,0.20768,-0.26078,0.048981
0.013581,-0.048676,0.016632,-0.0972,0.017243,-0.66148,-0.47044,-0.009308
0.027924,-0.078889,-0.014191,0.031281,0.077668,-1.0835,-0.27939,-0.040742
0.076448,-0.18601,-0.0096132,-0.0013733,0.027314,0.1912,0.010834,-0.050507
0.10239,-0.17197,-0.013581,-0.23117,0.033112,0.38132,0.27329,-0.057527
0.076753,-0.17838,0.005951,-0.024872,0.099336,0.11307,0.19272,-0.11398
0.023651,-0.042267,-0.045624,0.005951,0.059663,-0.039216,0.16129,-0.11215
-0.018769,0.057527,-0.09659,-0.036164,-0.0035096,-0.025483,0.0090028,-0.10208
-0.038605,0.077363,-0.11276,0.18936,-0.052033,0.044099,-0.14694,-0.064546
-0.014496,0.066072,-0.12314,-0.048676,-0.074922,0.014801,-0.16556,0.013581
-0.1384,0.1387,-0.13291,-0.47501,0.033417,0.063325,0.24277,0.046845
-0.27573,0.1677,-0.13535,-0.12924,0.10025,0.15091,0.39445,0.070649
-0.22812,0.073396,-0.08072,-0.25193,0.11154,0.042573,-0.1799,0.14511
-0.11185,-0.031586,-0.026093,-0.081025,-0.00045777,-0.066377,-0.23362,0.1268
0.009308,-0.103,-0.034028,0.016632,-0.072175,-0.064546,-0.168,0.068513
0.019989,-0.045624,-0.084382,-0.14542,-0.061799,0.035248,-0.083772,0.023957
0.00045777,-0.016022,-0.078889,-0.078279,-0.091402,0.10605,0.23911,0.037079
0.15152,-0.1561,0.0080873,-0.016632,0.043793,-0.098726,0.13626,0.056001
0.11887,-0.20829,0.020905,0.075227,0.14481,-0.0099184,0.015412,-0.0010681
0.084077,-0.21988,0.030671,-0.34775,0.079805,0.094453,-0.2034,-0.049592
0.03769,-0.13809,0.020294,0.40085,-0.061799,0.16526,0.066072,-0.059968
-0.038911,-0.058442,-0.002594,-0.0065614,-0.11704,0.17136,0.11673,-0.086213
-0.052033,-0.05417,-0.04654,0.11093,0.074311,-0.23239,-0.022431,-0.11246
-0.069123,-0.014191,-0.10025,-0.060273,0.16678,-0.33371,-0.20005,-0.13352
-0.11185,0.087739,-0.11215,-0.32456,0.11398,-0.03769,-0.0080873,-0.17288
-0.15152,0.078584,-0.11521,-0.20096,0.094453,0.076448,0.019379,-0.11398
-0.15488,0.045319,-0.1091,-0.08072,0.0206,0.11978,0.093843,0.031891
-0.12772,0.037079,-0.084688,-0.090791,-0.071565,0.051728,0.14389,0.14267
-0.056611,0.022736,-0.11154,-0.11154,-0.13046,0.1268,0.049287,0.23301
0.0032044,-0.056916,-0.08072,-0.033722,-0.121,0.13962,0.060273,0.16526
-0.069429,-0.0035096,-0.098726,-0.022126,-0.11093,0.11704,0.059663,0.11643
-0.077974,0.067903,-0.074922,-0.075837,-0.0065614,0.092622,0.0383,0.17075
-0.016327,-0.028229,-0.050202,-0.099336,0.089265,0.0206,0.049897,0.14054
0.023651,-0.088655,-0.027619,-0.17288,0.016022,-0.38376,-0.025177,0.02945
0.035248,-0.083467,-0.0013733,-0.24399,0.010834,-0.27756,0.0010681,0.019379
0.037995,-0.11826,0.019989,-0.097505,-0.0050355,0.23667,0.1384,0.0206
0.023346,-0.051728,-0.010529,0.056916,0.017243,0.18723,0.14847,-0.03769
0.0038148,-0.016327,-0.022126,-0.00076295,0.005951,0.30442,0.29343,0.0053407
0.051728,-0.12253,-0.0086976,-0.02884,0.0032044,0.18936,0.28214,-0.0028992
0.059663,-0.10849,-0.055085,-0.029145,0.00076295,0.12589,-0.051118,-0.040742
0.044099,-0.050813,-0.061189,-0.016938,-0.041962,0.13535,-0.29435,-0.13443
0.020294,-0.10452,-0.066682,-0.12345,-0.05478,-0.47684,-0.38071,-0.1561
-0.029145,-0.022431,-0.11307,-0.28244,0.061494,-1.0695,-0.6041,-0.15091
-0.02884,-0.058137,-0.10025,0.043488,0.042878,0.044709,-0.21653,-0.063935
-0.090181,0.02121,-0.13901,0.0077821,0.050507,0.099641,-0.038605,-0.0035096
-0.14359,0.065766,-0.11215,-0.13382,0.2974,-0.094759,-0.36362,0.015717
-0.082856,0.023651,-0.091096,-0.030671,0.1268,0.2797,0.24186,0.094453
-0.016327,0.011444,-0.055085,0.040131,-0.16403,0.43656,0.38865,0.11093
0.0086976,0.010224,-0.024872,-0.17777,0.043488,0.63706,0.33677,0.12711
0.026093,0.07248,-0.046235,-0.20584,0.013275,0.31235,0.33371,0.084382
-0.0096132,0.015106,-0.017853,-0.11521,0.00045777,-0.017853,0.23911,-0.026703
-0.027619,-0.10056,0.00045777,-0.34134,-0.056001,-0.5098,0.005951,-0.052033
-0.041047,-0.1445,-0.00045777,-0.25528,-0.14542,-0.29374,-0.60472,-0.0096132
-0.036774,-0.15152,0.019379,0.65293,0.092012,-0.46799,-0.44938,-0.041352
-0.0083925,-0.17899,-0.024567,-0.075532,0.12192,-0.15366,0.076143,-0.02121
-0.016938,-0.15671,-0.032197,-0.24033,-0.099031,0.45457,0.23972,-0.030671
-0.027619,-0.024567,-0.064546,-0.11032,-0.040742,0.026398,0.045624,-0.083772
-0.019684,-0.078279,-0.072175,-0.079805,0.014191,-0.57755,-0.075532,-0.051423
-0.092317,0.054475,-0.11154,-0.13565,0.013275,0.014801,0.23514,-0.033112
-0.099641,0.15335,-0.12345,-0.099947,0.0013733,0.32059,0.47349,0.053559
-0.11612,0.10727,-0.11368,-0.072175,-0.017243,0.14969,0.29007,0.12192
-0.079194,-0.016632,-0.10239,0.39109,0.012665,0.13474,0.24094,0.12009
-0.053559,-0.051423,-0.11673,-0.19059,0.0019837,0.048981,-0.55589,0.061799
-0.11978,0.040742,-0.10361,-0.28214,-0.064851,0.14542,-1.0066,0.066377
-0.033722,0.031281,-0.091402,-0.14359,0.059358,0.33921,0.28214,0.16526
-0.0086976,0.010529,-0.037079,-0.21988,0.067903,0.28,0.39689,0.074006
0.014801,-0.026093,0.0022889,-0.11704,-0.076143,0.37949,0.25772,0.027924
0.056611,-0.15396,0.091096,-0.00015259,-0.038911,0.044709,-0.00015259,0.016938
0.11398,-0.15579,0.026398,-0.024567,0.059663,-1.2364,-0.17197,-0.052033
0.10666,-0.058442,-0.030671,-0.030365,0.065461,-0.64378,-0.11765,-0.069123
0.067903,-0.088045,-0.035859,-0.024872,0.046845,0.39445,-0.084993,-0.064851
