0.015106,-0.12955,-0.0047303,-0.044709,0.033417,0.0062562,-0.019074,-0.024872
0.013886,-0.14023,-0.012055,-0.031281,0.050202,-0.0086976,-0.020294,-0.037079
0.020905,-0.11429,-0.027924,-0.052644,0.059968,-0.010224,-0.021515,-0.031891
0.016938,-0.10178,-0.022126,-0.060273,0.052338,-0.0074769,-0.018463,-0.036774
-0.0013733,-0.052644,-0.043183,-0.061494,0.043488,0.0068666,-0.0090028,-0.051423
-0.013581,-0.031586,-0.058137,-0.05539,0.03006,0.013275,0.0032044,-0.057221
-0.038911,0.018463,-0.10452,-0.084993,0.015412,0.012665,0.016022,-0.020294
-0.0056458,0.043793,-0.11765,-0.09781,0.019379,0.0050355,0.010529,0.00045777
-0.033112,0.041352,-0.096895,-0.11154,0.0065614,-0.00015259,0.0013733,0.023957
-0.056611,0.022736,-0.10544,-0.10849,-0.027619,0.011139,-0.019684,0.039826
-0.020294,-0.00015259,-0.091402,-0.10513,-0.033722,-0.030365,-0.017548,0.067903
-0.051118,-0.0047303,-0.095979,-0.10483,-0.031281,-0.082246,-0.0047303,0.060273
-0.095064,-0.00045777,-0.072175,-0.103,-0.02945,0.041047,0.041657,0.037995
-0.13413,0.012055,-0.051728,-0.067292,-0.028229,0.076448,0.072786,0.04593
-0.08011,-0.044099,-0.041047,-0.053254,-0.0065614,0.048371,0.063935,0.046845
-0.02121,-0.067903,-0.026398,-0.037079,0.016632,-0.013581,-0.039826,0.03769
-0.012665,-0.070344,-0.0080873,-0.050813,0.031281,-0.051118,-0.023346,0.014191
0.015106,-0.077668,-0.022431,-0.056306,0.036774,-0.014191,0.019684,-0.014496
0.033417,-0.082856,-0.014191,-0.071565,0.0383,0.041352,0.017243,-0.045014
0.027619,-0.10666,-0.022736,-0.068818,0.043793,0.038911,0.031891,-0.047761
0.029145,-0.11154,-0.026398,-0.058442,0.035859,0.024567,0.033722,-0.023346
0.0056458,-0.08011,-0.042573,-0.058747,0.031281,0.014496,0.014191,-0.01297
-0.014801,-0.070344,-0.022126,-0.057527,0.027314,0.015412,-0.0041199,-0.0080873
-0.037385,-0.027314,-0.062409,-0.068208,0.016022,0.011139,0.0071717,0.020905
-0.051423,0.035859,-0.13352,-0.098421,0.0096132,-0.0050355,-0.015412,0.039216
-0.097505,0.059968,-0.14725,-0.099336,-0.015717,-0.0071717,-0.0071717,0.075837
-0.10697,0.082246,-0.1384,-0.11582,-0.027008,0.0044251,0.0071717,0.092317
-0.095064,0.053559,-0.10819,-0.10117,-0.026703,0.016938,0.026703,0.088045
-0.084993,0.0047303,-0.064546,-0.10758,-0.024567,0.044404,0.073701,0.059663
-0.057527,-0.062409,-0.027619,-0.086519,-0.01236,0.060578,0.11246,0.051728
-0.024567,-0.057527,-0.046845,-0.077668,-0.002594,0.067597,0.060273,0.082246
-0.025483,-0.043793,-0.041962,-0.069123,0.005951,0.06424,0.010529,0.066682
-0.002594,-0.070039,-0.0019837,-0.045624,0.00045777,0.045014,-0.01236,-0.0065614
0.032197,-0.081331,-0.0053407,-0.030365,0.0056458,0.0041199,-0.037385,-0.081331
0.052949,-0.074006,-0.0074769,-0.058442,0.041047,-0.20249,-0.12009,-0.1091
0.067903,-0.1384,-0.015717,-0.052644,0.049897,-0.014801,-0.026703,-0.11215
0.07248,-0.14389,-0.027924,-0.033112,0.050202,0.060273,0.027314,-0.11551
0.041352,-0.082246,-0.042573,-0.054475,0.054475,-0.016022,-0.015717,-0.11429
0.033722,0.0086976,-0.074006,-0.052644,0.045014,-0.013886,-0.012665,-0.081636
-0.0050355,-0.0038148,-0.092317,-0.089265,0.031281,0.00015259,0.0071717,-0.05478
-0.04654,-0.00076295,-0.10147,-0.15061,0.0080873,0.121,0.051423,-0.030365
-0.068208,0.022736,-0.10758,-0.11734,-0.029145,0.16587,0.087739,0.0206
-0.10452,0.041352,-0.1146,-0.099336,-0.035859,0.099641,0.043793,0.069123
-0.13443,0.059663,-0.1033,-0.10086,-0.029145,0.041352,0.00045777,0.077668
-0.11582,0.037995,-0.090486,-0.094759,-0.030671,0.0080873,-0.036774,0.11307
-0.098421,0.023346,-0.0795,-0.10269,-0.0083925,-0.36881,-0.095674,0.11276
-0.075532,0.0062562,-0.076143,-0.11063,0.02182,-0.47288,-0.02945,0.098421
-0.067292,-0.02945,-0.040436,-0.069123,-0.014801,0.13321,0.086213,0.092317
-0.038605,-0.078279,-0.0074769,-0.045624,-0.022431,0.16831,0.077668,0.069734
-0.010834,-0.10361,-0.0028992,-0.05539,0.009308,0.094759,0.039826,0.048981
0.023957,-0.13291,0.023957,-0.043488,0.030365,0.079805,0.031891,0.016938
0.036164,-0.11612,0.0056458,-0.034638,0.034028,0.040436,0.012055,-0.02121
0.058442,-0.10971,-0.0083925,-0.041352,0.04593,0.030365,0.01297,-0.032807
0.062409,-0.14298,0.016327,-0.016632,0.055085,0.024567,0.0019837,-0.065156
0.045319,-0.12192,-0.06302,-0.040436,0.060273,0.009308,-0.0056458,-0.077974
0.0071717,-0.038605,-0.092927,-0.07248,0.057527,-0.012055,-0.026398,-0.068208
-0.022126,-0.0053407,-0.098116,-0.10636,0.02945,-0.051728,0.0071717,-0.038605
-0.038605,0.030365,-0.11337,-0.10269,-0.0044251,-0.048981,0.0099184,-0.010834
-0.08011,0.058747,-0.12497,-0.10147,-0.011139,0.009308,-0.0068666,-0.0019837
-0.083162,0.07187,-0.11124,-0.10452,-0.034638,0.082551,0.03006,0.03769
-0.093233,0.063325,-0.1033,-0.081025,-0.048676,0.24552,0.034028,0.079805
-0.10361,0.049287,-0.094759,-0.10269,-0.011444,0.12863,-0.033112,0.079805
-0.087129,0.02182,-0.066072,-0.093843,-0.00015259,-0.16831,-0.025788,0.10025
-0.061494,-0.014801,-0.052033,-0.086519,-0.013581,-0.027619,0.020905,0.082856
-0.049592,-0.037995,-0.030365,-0.07126,-0.0071717,-0.0090028,0.016938,0.065766
0.0050355,-0.0795,-0.0068666,-0.070649,0.0038148,-0.0074769,0.027924,0.059052
0.043183,-0.10086,-0.00045777,-0.065461,0.010834,0.022126,0.02182,0.022736
0.031891,-0.11551,-0.016938,-0.05539,0.016632,0.019379,0.014191,-0.017548
0.030365,-0.12589,-0.017853,-0.048371,0.023041,0.024872,0.012665,-0.02945
-0.069123,0.018158,-0.13901,-0.08957,0.034028,0.0053407,-0.0022889,-0.036774
0.011749,-0.095979,-0.0028992,-0.052949,0.011139,-0.0047303,0.0019837,0.005951
0.0077821,-0.072175,-0.019684,-0.069123,0.011444,-0.0080873,0.020905,-0.015717
-0.0096132,-0.074617,-0.019684,-0.053559,0.047761,-0.013275,0.021515,-0.067292
-0.025788,-0.02945,-0.07248,-0.074311,0.041352,0.002594,0.026093,-0.075227
-0.039521,0.014496,-0.10971,-0.094759,0.031281,0.019074,0.015106,-0.065461
-0.051728,0.013886,-0.092927,-0.097505,0.013581,0.034028,-0.057221,-0.041047
-0.058747,0.020294,-0.088045,-0.098421,-0.0032044,-0.0071717,-0.09781,-0.0062562
-0.059052,0.050507,-0.10208,-0.10117,-0.02121,-0.029755,-0.01236,0.039216
-0.06363,0.030365,-0.088045,-0.0795,-0.034638,0.015106,0.025177,0.08072
-0.045624,-0.0083925,-0.077058,-0.08835,-0.031586,0.041047,0.09659,0.094453
-0.02945,-0.046235,-0.032197,-0.069734,-0.026398,0.040131,0.13504,0.076753
-0.011444,-0.075837,-0.013886,-0.048981,-0.0056458,0.032197,0.11612,0.049287
0.017853,-0.097505,-0.017548,-0.076448,0.027924,0.034943,0.062104,0.0077821
0.039826,-0.10758,-0.0080873,-0.074617,0.023957,0.017243,-0.19425,-0.022126
0.050202,-0.10056,-0.012055,-0.053559,0.027314,-0.026398,-0.23484,-0.051118
0.024872,-0.095979,-0.018158,-0.045624,0.047761,-0.093233,0.0090028,-0.05478
0.02884,-0.097505,-0.029755,-0.049287,0.064546,-0.018158,0.034943,-0.01297
0.005951,-0.06424,-0.05417,-0.056306,0.05539,0.060883,0.058442,0.012055
-0.012055,-0.063325,-0.052033,-0.071565,0.042267,0.017853,0.033722,0.010529
-0.058747,-0.029755,-0.075227,-0.079805,0.025788,-0.0028992,0.017548,-0.025788
-0.075227,0.0096132,-0.086824,-0.10117,0.00045777,0.0053407,0.022126,-0.016938
-0.092317,0.051118,-0.11765,-0.10697,-0.011444,0.016022,0.020294,-0.0090028
-0.085603,0.057527,-0.10758,-0.09781,-0.025788,0.01297,0.023957,0.0035096
-0.10452,0.057527,-0.10025,-0.092927,-0.030365,0.0044251,0.023957,0.031891
-0.093233,0.02945,-0.0972,-0.089876,-0.033722,0.016022,0.017853,0.056306
-0.10544,0.053864,-0.08896,-0.12253,-0.025788,0.014801,0.031891,0.064546
-0.085603,-0.0022889,-0.023041,-0.098421,-0.027619,0.016327,0.023346,0.10147
-0.068818,-0.029755,-0.034638,-0.066987,-0.031281,0.034333,0.049592,0.12222
-0.031281,-0.070649,-0.034028,-0.062409,-0.0090028,0.03006,0.026093,0.11002
0.026703,-0.1149,-0.0062562,-0.034943,0.0013733,0.014496,0.021515,0.086213
0.035248,-0.13352,-0.0086976,-0.05478,0.026093,0.020905,0.027619,0.025177
0.044404,-0.12009,-0.019989,-0.050813,0.046235,0.02121,0.016632,-0.027314
0.05417,-0.09781,-0.030671,-0.040436,0.045014,0.020294,0.0071717,-0.045319
0.049897,-0.095979,-0.034943,-0.042267,0.041657,0.0013733,-0.0065614,-0.08011
0.041962,-0.058442,-0.059968,-0.063325,0.046845,-0.012665,-0.031281,-0.093233
0.03006,-0.045624,-0.060883,-0.072786,0.033112,-0.013275,-0.029145,-0.083467
0.0065614,-0.013886,-0.083467,-0.089876,0.027008,-0.015717,-0.027008,-0.077668
-0.024872,0.013886,-0.10025,-0.098726,0.014801,-0.00076295,-0.016327,-0.066987
-0.058747,0.027619,-0.1088,-0.103,0.005951,-0.009308,-0.0090028,-0.038605
-0.07187,0.017853,-0.1091,-0.085603,-0.015412,-0.0074769,-0.015412,-0.00015259
-0.1146,0.032197,-0.094453,-0.103,-0.034943,-0.0019837,-0.0053407,0.014801
-0.12253,0.041352,-0.086824,-0.10452,-0.015412,-0.0019837,0.016022,0.069429
-0.1033,0.02945,-0.062715,-0.10788,-0.020905,0.0099184,0.025483,0.096895
-0.065156,0.01236,-0.048981,-0.081636,-0.019379,0.016632,0.026093,0.09781
-0.04654,-0.026703,-0.040436,-0.066377,-0.0041199,0.029145,0.037079,0.11185
-0.014801,-0.059358,-0.03769,-0.065461,-0.0022889,0.028534,0.038911,0.082551
0.010834,-0.11612,-0.022736,-0.052644,-0.00045777,0.023957,0.03769,0.0096132
0.032197,-0.11368,0.0013733,-0.048676,0.017853,0.016632,0.027924,-0.043183
0.060273,-0.11643,-0.013886,-0.06363,0.032807,0.0086976,0.0010681,-0.056001
0.061189,-0.13413,0.002594,-0.041352,0.035554,0.0047303,-0.009308,-0.041962
0.053864,-0.15,-0.019684,-0.047456,0.035554,0.012665,-0.002594,-0.060883
0.0090028,-0.0795,-0.076143,-0.068208,0.046845,0.020905,-0.0047303,-0.093538
-0.018463,-0.019379,-0.068208,-0.073396,0.040436,0.017243,-0.011444,-0.055695
-0.044709,0.002594,-0.092927,-0.082856,0.014191,0.002594,-0.01297,0.0065614
-0.092012,0.050202,-0.10513,-0.082246,0.010834,-0.029755,-0.029755,0.023957
-0.12131,0.075227,-0.04593,-0.072786,0.002594,-0.027314,-0.0080873,0.08011
-0.13352,0.1146,-0.13138,-0.11734,0.0053407,-0.0090028,0.017243,0.12985
-0.12436,0.048371,-0.11948,-0.11521,-0.01236,0.0047303,0.0096132,0.12375
-0.092927,0.025177,-0.10452,-0.10575,-0.026703,0.0383,0.032197,0.10697
-0.069429,-0.0013733,-0.066072,-0.1033,-0.022126,0.03006,0.041657,0.085603
-0.0383,-0.026093,-0.057221,-0.085298,-0.025788,0.018769,0.02945,0.056001
-0.0096132,-0.060578,-0.027619,-0.068818,-0.019379,0.025177,0.041657,0.025483
0.0080873,-0.095369,-0.0028992,-0.058137,-0.0035096,0.020294,0.018158,-0.020294
0.0383,-0.13626,0.0041199,-0.033722,0.012665,0.026703,-0.0013733,-0.055695
0.011749,-0.12467,0.017548,-0.05539,0.041962,0.0090028,-0.0090028,-0.086824
0.081331,-0.12345,0.0071717,-0.032197,0.049897,0.0062562,-0.019379,-0.093538
0.092317,-0.12009,-0.030365,-0.042267,0.042267,0.0090028,-0.00045777,-0.060883
0.047456,-0.086824,-0.051728,-0.044404,0.045624,-0.010224,-0.01236,-0.041962
-0.0062562,-0.058137,-0.059052,-0.059358,0.051118,-0.024872,-0.0074769,-0.024872
-0.043793,-0.022126,-0.10147,-0.082856,0.051423,-0.02182,0.0050355,-0.016938
-0.087434,0.016327,-0.1149,-0.103,0.016022,-0.0090028,0.0041199,0.025483
-0.10178,0.032502,-0.10239,-0.094759,-0.0065614,0.0071717,0.015717,0.048066
-0.062104,0.043793,-0.094453,-0.095064,-0.022126,0.019379,0.040436,0.034028
-0.064546,0.056611,-0.10819,-0.10086,-0.024872,0.010224,0.018769,-0.002594
-0.081941,0.043793,-0.10239,-0.11276,-0.024567,-0.00076295,0.00045777,-0.01297
-0.090181,0.035554,-0.0795,-0.11063,-0.033417,0.019379,-0.00015259,0.011139
-0.043183,-0.010224,-0.048066,-0.081331,-0.045319,0.0206,0.016022,0.023957
-0.013581,-0.042878,-0.02884,-0.079805,-0.023346,0.01297,0.0099184,0.048981
0.025177,-0.088045,-0.0074769,-0.065461,-0.0047303,0.016938,-0.0050355,0.044099
0.031891,-0.10178,-0.01297,-0.05417,0.0053407,0.02945,0.0028992,0.014801
0.041352,-0.1088,0.0022889,-0.052644,0.029755,0.018463,0.012055,0.0038148
0.032807,-0.12894,0.00045777,-0.026093,0.041962,0.0090028,-0.0080873,-0.016327
0.023957,-0.1088,-0.029755,-0.070344,0.056306,-0.0090028,-0.010834,-0.023041
0.036164,-0.08011,-0.031891,-0.06424,0.060578,0.00076295,-0.00076295,0.0019837
0.013886,-0.077363,-0.04715,-0.056916,0.044099,0.00015259,-0.0053407,-0.027314
-0.0080873,-0.052338,-0.068208,-0.082856,0.033722,-0.011444,0.0047303,-0.044709
-0.034943,-0.012055,-0.092927,-0.083772,0.015106,-0.0047303,0.015106,-0.035554
-0.091402,0.035248,-0.10849,-0.1149,0.0013733,-0.0013733,0.0099184,-0.009308
-0.091707,0.053559,-0.10758,-0.12161,-0.024262,0.0099184,0.02182,0.046235
-0.10971,0.059968,-0.11887,-0.10483,-0.032197,0.024872,0.05539,0.086213
-0.12345,0.07187,-0.099031,-0.11978,-0.030671,0.032807,0.050202,0.08011
-0.1268,0.04715,-0.097505,-0.10636,-0.041047,0.024262,0.043793,0.1149
-0.10025,0.015412,-0.062104,-0.069734,-0.044709,0.043488,0.057221,0.12863
-0.072175,-0.032197,-0.040436,-0.073091,-0.030671,0.034333,0.051728,0.067292
-0.046845,-0.060578,-0.02884,-0.066377,-0.0053407,0.012665,0.021515,0.035554
-0.013581,-0.10178,-0.019684,-0.052338,0.013275,-0.0019837,0.015717,0.013886
0.019074,-0.11948,-0.0019837,-0.053254,0.034028,-0.00015259,-0.0096132,0.0050355
0.014801,-0.077668,-0.020294,-0.054475,0.047761,0.0050355,-0.0090028,-0.0053407
0.02945,-0.083467,-0.019684,-0.032502,0.039521,0.027008,-0.00076295,-0.011139
0.015412,-0.1088,-0.014191,-0.044099,0.046235,0.0206,0.0090028,-0.017243
0.030365,-0.11002,-0.011444,-0.057527,0.047456,0.0080873,0.013275,-0.037385
0.034028,-0.075837,-0.074006,-0.065766,0.041657,-0.019379,-0.009308,-0.067903
0.023651,-0.029755,-0.076448,-0.075532,0.035554,-0.040436,-0.0062562,-0.065156
-0.0019837,-0.0022889,-0.10117,-0.093843,0.016632,0.0032044,0.020905,-0.068208
-0.027619,0.015106,-0.08011,-0.086824,-0.0050355,0.0065614,-0.0019837,-0.064546
-0.02945,0.025177,-0.098726,-0.093233,-0.0047303,-0.065461,-0.083467,-0.032807
-0.049287,0.03006,-0.11276,-0.099947,-0.0056458,-0.12161,-0.11582,-0.014191
-0.070649,0.043488,-0.10422,-0.096284,-0.0071717,-0.033417,-0.056916,0.0028992
-0.083772,0.037995,-0.087129,-0.088655,-0.014191,0.11337,-0.010529,0.047761
-0.087739,0.0086976,-0.063935,-0.087129,-0.012665,0.19364,0.035859,0.073396
-0.058137,-0.016022,-0.051728,-0.072786,-0.0050355,-0.059968,0.0096132,0.067597
-0.049287,-0.037995,-0.032502,-0.078279,-0.019379,-0.04593,0.062104,0.07248
-0.029755,-0.068818,-0.023651,-0.066377,-0.0090028,0.042878,0.049592,0.063935
-0.0068666,-0.092927,-0.016022,-0.066377,0.0050355,0.035554,0.051118,0.074006
0.023651,-0.10697,-0.016632,-0.043488,0.011139,0.042573,0.066682,0.04715
0.043183,-0.12253,0.0041199,-0.033417,0.036774,0.023957,0.029755,-0.02945
0.034943,-0.13626,0.010834,-0.05478,0.056001,-0.0032044,0.01297,-0.042878
0.010834,-0.1268,-0.023957,-0.048676,0.045319,-0.00076295,0.0056458,-0.052644
-0.0206,-0.031891,-0.077058,-0.077363,0.044099,0.0044251,0.0041199,-0.099031
-0.035554,-0.0086976,-0.085298,-0.089876,0.02884,-0.00015259,0.0053407,-0.08072
-0.043183,0.013581,-0.12314,-0.095064,0.0071717,-0.0022889,-0.00015259,-0.01236
-0.05478,0.043793,-0.12955,-0.10788,-0.0032044,0.013275,0.014801,0.035859
-0.060883,0.037995,-0.10636,-0.10636,-0.022431,0.015412,0.023957,0.061494
-0.077974,0.037385,-0.10513,-0.10941,-0.030365,0.0065614,0.016938,0.042878
-0.074922,0.015412,-0.047761,-0.090791,-0.033722,0.0206,0.016938,0.019684
-0.058137,0.011749,-0.04715,-0.091402,-0.033417,0.023041,0.017243,0.051118
-0.059358,0.00015259,-0.077058,-0.073396,-0.01297,-0.00015259,0.023346,0.083772
-0.03769,-0.02182,-0.068513,-0.075837,-0.0041199,-0.00015259,0.033112,0.043183
0.0038148,-0.060273,-0.027008,-0.060273,0.0016785,0.016327,0.032197,0.032197
0.032197,-0.095979,-0.010529,-0.042267,0.013886,0.016938,0.013581,0.010834
0.052338,-0.12772,0.019989,-0.051423,0.025483,0.0053407,-0.0022889,-0.033112
0.048981,-0.11948,-0.020294,-0.05417,0.052033,-0.0010681,-0.0068666,-0.052033
0.022126,-0.097505,-0.036774,-0.059663,0.06424,0.0065614,0.011444,-0.027008
0.0096132,-0.083467,-0.035859,-0.066987,0.056001,0.0090028,0.0096132,-0.028534
-0.0053407,-0.098421,-0.042573,-0.063325,0.041047,0.0071717,0.005951,-0.017548
-0.0013733,-0.082246,-0.051118,-0.066682,0.026093,-0.0071717,-0.009308,-0.016632
0.0090028,0.0053407,-0.072175,-0.077668,0.0090028,-0.0068666,-0.0096132,-0.016938
-0.055085,0.04715,-0.068513,-0.095369,0.0090028,0.0032044,-0.013275,-0.0071717
-0.069734,-0.0035096,-0.072786,-0.060578,0.0074769,0.010529,-0.01236,0.014801
-0.10849,0.049287,-0.14481,-0.083467,-0.0041199,0.0047303,-0.018769,0.023346
-0.14267,0.09781,-0.13443,-0.11978,-0.017243,-0.010834,-0.031891,0.011444
-0.13626,0.069123,-0.11246,-0.1146,-0.0383,0.0065614,0.0074769,0.062409
-0.12253,0.027924,-0.070344,-0.10697,-0.029755,0.013886,0.029755,0.099641
-0.084993,-0.014191,-0.040131,-0.095674,-0.024262,0.0038148,0.013886,0.094148
-0.050813,-0.044404,-0.028534,-0.074617,-0.015412,0.0032044,0.023651,0.091707
-0.028534,-0.074922,-0.022431,-0.075532,-0.0041199,0.02121,0.029145,0.085603
-0.0041199,-0.10483,-0.012055,-0.068818,0.002594,0.034943,0.031586,0.011139
-0.011139,-0.097505,-0.010224,-0.060883,0.0077821,0.045014,0.055695,-0.01297
0.022126,-0.10361,-0.016022,-0.058747,0.016022,0.039216,0.065156,-0.0044251
0.050202,-0.11276,-0.016938,-0.04715,0.027924,0.025483,0.066377,-0.020905
0.044404,-0.09659,-0.0383,-0.056916,0.037995,-0.0019837,0.052338,-0.044709
0.024262,-0.066377,-0.030671,-0.045014,0.043488,0.0013733,0.0080873,-0.067903
0.0038148,-0.048981,-0.08957,-0.061494,0.039216,-0.022736,-0.034333,-0.072786
-0.0028992,-0.032502,-0.066377,-0.07126,0.016632,-0.034333,-0.046845,-0.069734
-0.014496,-0.02884,-0.055085,-0.07126,0.0053407,-0.016938,-0.018463,-0.037385
-0.051423,0.022736,-0.11826,-0.1088,0.0038148,-0.0056458,-0.009308,-0.034638
-0.081025,0.10636,-0.15305,-0.12558,-0.009308,0.0065614,0.0050355,-0.029755
-0.064546,0.047761,-0.099336,-0.10758,-0.022736,0.040131,0.041962,0.0099184
-0.087739,0.042267,-0.1033,-0.10666,-0.030671,0.043183,0.053559,0.057221
-0.049897,-0.0016785,-0.04654,-0.088655,-0.038605,0.02121,0.025788,0.11002
-0.041962,-0.041962,-0.024567,-0.059052,-0.010529,-0.0010681,0.0068666,0.15152
-0.019074,-0.054475,-0.042267,-0.051728,0.013886,0.0080873,0.014191,0.14725
0.0077821,-0.074617,-0.013581,-0.060883,0.013581,0.032197,0.022126,0.12314
0.031281,-0.1149,-0.0083925,-0.051728,0.033112,0.027924,0.010529,0.035554
0.041352,-0.1088,-0.018158,-0.04715,0.045319,0.012055,-0.0068666,-0.028229
0.02121,-0.11826,-0.020294,-0.05539,0.041657,0.009308,-0.0019837,-0.072786
0.02884,-0.11795,-0.020294,-0.059663,0.040131,0.01297,-0.0068666,-0.075227
0.03006,-0.10544,-0.044404,-0.064851,0.040131,-0.0077821,-0.031891,-0.075837
-0.0010681,-0.05478,-0.076448,-0.061799,0.040436,-0.030976,-0.029755,-0.095674
-0.043793,-0.019989,-0.082551,-0.079194,0.035859,-0.02182,-0.0047303,-0.06302
-0.056611,0.0077821,-0.10147,-0.08835,0.011444,-0.026093,-0.0090028,-0.040742
-0.057221,0.022736,-0.103,-0.093843,-0.0022889,-0.023041,-0.0041199,-0.0010681
-0.055695,0.039826,-0.10819,-0.11063,-0.011444,-0.0071717,0.0056458,0.042267
-0.084077,0.04654,-0.095064,-0.13138,-0.015106,0.0044251,0.002594,0.081941
-0.098421,0.040131,-0.084993,-0.10239,-0.040742,0.016938,0.011749,0.035248
-0.10391,0.035859,-0.077058,-0.10086,-0.041352,0.019989,0.012055,0.011749
-0.069429,0.0010681,-0.046235,-0.077668,-0.028534,0.02945,0.02121,0.02182
-0.04654,-0.033417,-0.045624,-0.070954,-0.019379,0.030671,0.027008,-0.0080873
-0.012055,-0.052949,-0.020905,-0.068818,-0.01236,0.022126,0.0013733,-0.033112
0.011749,-0.096284,-0.0013733,-0.053254,0.009308,0.0053407,-0.0022889,-0.023346
0.017853,-0.099641,-0.020905,-0.044709,0.02884,0.011139,0.002594,-0.040742
0.02121,-0.11276,-0.016632,-0.048981,0.022126,-0.0028992,-0.0068666,-0.028229
0.0028992,-0.093538,-0.026703,-0.03769,0.041047,-0.017853,0.005951,-0.0010681
0.056001,-0.103,-0.018769,-0.080415,0.055085,0.00076295,0.018158,-0.0056458
-0.022431,-0.10452,-0.016938,-0.065766,0.03006,0.018158,0.05417,0.03006
-0.063325,-0.078584,-0.069123,-0.072175,0.011749,0.044099,0.077668,0.061494
-0.10422,-0.0053407,-0.10605,-0.087129,0.023041,0.043488,0.065461,0.098726
-0.11856,0.035554,-0.11124,-0.089876,0.015106,0.032502,0.041962,0.11093
-0.15,0.052033,-0.10452,-0.10117,0.0035096,0.01297,0.025177,0.10361
-0.10239,0.048066,-0.10147,-0.094453,-0.0056458,-0.0016785,0.0038148,0.069429
-0.074006,0.058137,-0.091096,-0.08835,-0.020294,0.011444,0.0077821,0.060273
-0.078279,0.063325,-0.072175,-0.085298,-0.019074,0.01297,-0.0050355,0.03769
-0.065766,0.058137,-0.072175,-0.087434,-0.0083925,0.00076295,-0.01236,0.035859
-0.0096132,-0.032197,-0.074006,-0.08896,-0.012665,0.018158,0.039826,0.072175
0.020294,-0.062104,-0.039216,-0.07248,-0.0053407,0.036774,0.032197,0.03769
0.068208,-0.10849,-0.005951,-0.050813,-0.0010681,0.036164,0.014801,-0.009308
0.08957,-0.15274,0.017853,-0.043183,0.011139,0.023041,-0.0086976,-0.061494
0.084688,-0.13352,-0.0068666,-0.042878,0.037079,0.0077821,-0.031891,-0.083467
0.054475,-0.12284,-0.019989,-0.048371,0.045624,0.0090028,-0.0019837,-0.081025
0.053864,-0.10758,-0.035859,-0.046235,0.044099,0.0028992,0.010529,-0.087739
0.045624,-0.103,-0.037079,-0.065766,0.040131,-0.0090028,-0.009308,-0.08957
0.011444,-0.070039,-0.053254,-0.072175,0.033417,-0.015106,-0.042573,-0.093538
-0.030365,-0.027619,-0.080415,-0.076448,0.030976,-0.0383,-0.044709,-0.079805
-0.03769,-0.00015259,-0.092317,-0.079805,0.029145,-0.10269,-0.056611,-0.052644
-0.049287,0.036469,-0.11704,-0.092927,0.011444,-0.0086976,-0.0053407,-0.012665
-0.078279,0.044099,-0.10849,-0.096284,-0.0047303,0.028229,0.035859,0.025177
-0.092927,0.044709,-0.11307,-0.11154,-0.013275,-0.0032044,0.029145,0.063935
-0.12009,0.051728,-0.092317,-0.10147,-0.016938,0.019074,0.047456,0.066377
-0.10605,0.026398,-0.068513,-0.10178,-0.032807,0.032197,0.091707,0.11398
-0.081636,0.0013733,-0.050507,-0.091096,-0.025788,0.043488,0.11185,0.14298
-0.065766,-0.00045777,-0.048676,-0.097505,-0.0062562,0.044709,0.092622,0.1146
-0.040742,-0.054475,-0.031891,-0.063325,-0.011139,0.052338,0.07126,0.045319
-0.011139,-0.086519,-0.017548,-0.058137,0.0019837,0.01236,-0.14267,-0.0053407
0.030976,-0.12009,-0.00015259,-0.056306,0.024872,-0.014801,-0.1973,-0.016938
0.06363,-0.13046,-0.0083925,-0.043183,0.034943,-0.013886,0.050507,-0.016938
0.07126,-0.12375,-0.0022889,-0.05417,0.036774,0.015412,0.081941,-0.04654
0.046235,-0.10056,-0.024262,-0.051118,0.031281,0.0383,0.065766,-0.067597
-0.0062562,-0.079805,-0.039826,-0.059663,0.035248,0.030976,-0.011139,-0.064546
-0.052949,-0.043793,-0.075227,-0.068818,0.036774,0.00015259,-0.094453,-0.045624
-0.067903,0.014191,-0.10269,-0.096895,0.036164,-0.056001,-0.041657,-0.0096132
-0.077363,0.02945,-0.10025,-0.10239,0.017243,-0.037079,-0.024262,0.0032044
-0.078279,0.043488,-0.1088,-0.11185,-0.00045777,-0.0090028,0.033417,0.02884
-0.084382,0.027924,-0.10605,-0.10117,-0.023346,0.0090028,0.052949,0.053254
-0.070039,0.025177,-0.080415,-0.091707,-0.044404,0.013275,0.020294,0.070039
-0.065156,0.036469,-0.077058,-0.088655,-0.032807,0.023346,0.030365,0.090791
-0.07187,0.035859,-0.062409,-0.089876,-0.022126,0.022736,0.031891,0.056001
-0.036469,-0.040436,-0.027619,-0.043488,-0.014801,0.022736,0.050202,0.081941
-0.027008,-0.053559,-0.065156,-0.060883,0.0074769,0.032197,0.062104,0.079805
-0.0068666,-0.05478,-0.038605,-0.076448,0.012055,0.018769,0.043488,0.056306
0.015106,-0.08011,-0.013581,-0.078279,0.0041199,0.026093,0.035554,0.024872
0.028229,-0.095979,-0.0090028,-0.065766,0.014191,0.025483,0.027008,-0.016938
0.042267,-0.1146,-0.0068666,-0.060883,0.019074,0.019989,0.021515,-0.037385
0.030365,-0.11643,-0.034638,-0.049592,0.030365,0.0038148,0.0016785,-0.067903
0.013886,-0.091707,-0.02182,-0.05417,0.035554,-0.0080873,-0.00045777,-0.047456
-0.024567,-0.070344,-0.048371,-0.088655,0.039521,0.00045777,0.0028992,-0.02945
-0.047761,-0.03769,-0.073396,-0.072175,0.0383,0.0083925,0.0077821,-0.035554
-0.065766,-0.02884,-0.067292,-0.059052,0.023346,0.014801,0.014801,-0.013275
-0.08011,0.027619,-0.094148,-0.08957,0.024262,0.0050355,0.0050355,-0.014496
-0.093233,0.045319,-0.13046,-0.10269,0.0068666,-0.009308,-0.013275,-0.016327
-0.097505,0.039521,-0.12161,-0.099641,-0.010529,-0.0050355,0.0010681,0.02121
-0.077974,0.018463,-0.093233,-0.091402,-0.010224,-0.0032044,-0.00045777,0.062104
-0.072786,0.032502,-0.10452,-0.093538,-0.025483,0.0080873,0.00045777,0.085603
-0.057832,0.026703,-0.082246,-0.099947,-0.028534,0.032197,0.016938,0.075227
-0.025788,-0.027619,-0.025483,-0.068208,-0.022431,0.042878,0.031891,0.074617
0.018158,-0.076448,0.039521,-0.06363,-0.016632,0.025483,0.023957,0.061494
0.052338,-0.092317,-0.005951,-0.04654,0.0090028,0.0086976,0.013886,0.0035096
0.046235,-0.1088,-0.036164,-0.058747,0.041352,0.0022889,-0.011139,-0.029145
0.042267,-0.103,-0.016938,-0.055085,0.047761,-0.0016785,0.0065614,-0.029755
0.03769,-0.1268,-0.019074,-0.049592,0.041962,0.010834,0.026093,-0.030671
0.0056458,-0.07187,-0.040436,-0.058442,0.045319,0.010224,0.0074769,-0.029755
0.014191,-0.068818,-0.045014,-0.043488,0.034028,0.0028992,0.023651,-0.022736
-0.010224,-0.047456,-0.069429,-0.072175,0.024262,0.0086976,0.024262,-0.042878
-0.035554,-0.018158,-0.073091,-0.090486,0.035859,-0.0032044,0.0068666,-0.057832
-0.041657,0.017243,-0.094453,-0.09781,0.031281,0.0065614,0.0071717,-0.038911
-0.05539,0.026093,-0.10971,-0.1088,0.0099184,0.0099184,-0.00015259,-0.0056458
-0.074006,0.035859,-0.11643,-0.1091,-0.016938,0.0080873,-0.0028992,0.021515
-0.10178,0.061189,-0.11368,-0.099947,-0.024262,0.0038148,-0.0028992,0.046845
-0.10025,0.019074,-0.06302,-0.082246,-0.022431,0.0080873,-0.0056458,0.063325
-0.093538,-0.0028992,-0.066682,-0.093233,-0.02884,0.018769,0.0041199,0.065461
-0.067903,-0.032197,-0.066377,-0.075532,-0.023651,0.022126,0.023651,0.07248
-0.043488,-0.028534,-0.052644,-0.065461,-0.027619,0.031281,0.025177,0.070039
-0.0065614,-0.059968,-0.042267,-0.098726,-0.010529,0.011444,0.011444,0.041047
0.022736,-0.095369,-0.012055,-0.059663,0.0090028,0.011139,-0.0032044,0.020905
0.062409,-0.10208,0.0077821,-0.036774,0.015412,0.014496,0.0099184,0.0028992
0.08957,-0.13138,0.040742,-0.03006,0.049592,-0.0041199,-0.0019837,-0.044709
0.078584,-0.1384,-0.0090028,-0.034638,0.04715,0.0013733,-0.020294,-0.10391
0.047456,-0.11276,-0.039216,-0.058442,0.053864,-0.00076295,-0.016327,-0.094148
0.023651,-0.085908,-0.028229,-0.058137,0.057221,0.014191,0.01297,-0.081941
-0.015717,-0.0383,-0.058442,-0.087739,0.043183,0.0028992,0.023346,-0.067903
-0.062104,0.011139,-0.099336,-0.092317,0.033722,0.0041199,0.019379,-0.033417
-0.092012,0.037385,-0.11307,-0.0972,0.0077821,0.039521,0.042267,0.012665
-0.12772,0.070039,-0.11948,-0.10575,-0.0047303,0.0041199,-0.0044251,0.077668
-0.16648,0.071565,-0.11978,-0.11368,-0.016327,-0.041047,0.0050355,0.14115
-0.17594,0.069123,-0.1146,-0.10086,-0.029145,-0.031281,0.053254,0.16068
-0.13626,0.049592,-0.10269,-0.10788,-0.044404,-0.016327,0.068208,0.16831
-0.11215,0.029755,-0.08011,-0.092927,-0.04593,0.0077821,0.056306,0.13382
-0.050813,-0.017548,-0.044404,-0.076448,-0.041047,0.045319,0.061799,0.090791
-0.038911,-0.049592,-0.025788,-0.065461,-0.019074,0.15305,0.079805,0.066072
-0.025483,-0.042267,-0.01297,-0.061799,0.0068666,0.2739,0.03006,0.017853
0.033417,-0.084688,0.0035096,-0.059663,0.03769,-0.0062562,-0.03769,-0.023651
0.067903,-0.15488,-0.011444,-0.041657,0.0206,-0.098726,0.029755,-0.035554
0.078279,-0.13352,-0.0044251,-0.052949,0.043793,-0.0016785,0.019989,-0.075227
0.056611,-0.087739,-0.039216,-0.059663,0.058442,-0.034028,-0.014496,-0.099641
0.055085,-0.10422,-0.0065614,-0.045014,0.036164,-0.0050355,-0.030976,-0.058137
0.023651,-0.083772,-0.0383,-0.051728,0.036164,-0.013275,-0.049897,-0.025788
-0.0065614,-0.039826,-0.079194,-0.076448,0.054475,-0.091707,-0.043793,-0.023651
-0.019379,-0.013886,-0.11276,-0.10483,0.029145,-0.061494,-0.020905,-0.0096132
-0.033722,0.018158,-0.11246,-0.093233,-0.0044251,0.0383,0.02945,-0.023651
-0.043183,0.0047303,-0.09659,-0.087434,-0.011444,0.014496,0.01297,-0.049897
-0.051728,0.019379,-0.10849,-0.095674,-0.011444,0.0053407,-0.012665,-0.050813
-0.083772,0.043183,-0.1033,-0.099947,-0.016938,0.0077821,-0.0035096,0.0041199
-0.081941,0.038605,-0.090486,-0.11032,-0.025177,0.02121,0.011749,0.056306
-0.082856,0.017243,-0.04715,-0.087129,-0.019379,0.022126,0.015412,0.047761
-0.02884,-0.070039,0.011444,-0.04715,-0.0083925,0.0062562,0.021515,0.068208
-0.025788,-0.06363,-0.05417,-0.064851,0.012665,0.014191,0.021515,0.096895
-0.002594,-0.083772,-0.041047,-0.060273,0.019074,0.026703,0.019074,0.084077
0.023957,-0.088655,-0.002594,-0.059663,0.019989,0.023957,0.032197,0.043793
0.033722,-0.10178,-0.0206,-0.065156,0.029755,0.0068666,0.013886,-0.0013733
0.040131,-0.10849,-0.02182,-0.050202,0.032807,0.025177,0.0041199,-0.034333
0.031891,-0.097505,-0.013886,-0.03006,0.039521,0.022736,-0.016938,-0.070649
0.033417,-0.0795,-0.028534,-0.052949,0.048066,-0.00076295,-0.024262,-0.087434
-0.010834,-0.056306,-0.042878,-0.069734,0.048981,-0.0013733,-0.016938,-0.078279
-0.031586,-0.034638,-0.07126,-0.071565,0.039826,-0.016938,-0.010834,-0.034943
-0.072175,0.014191,-0.11032,-0.10727,0.02182,-0.0032044,-0.0019837,0.0010681
-0.089265,0.044099,-0.10849,-0.097505,-0.0071717,0.0022889,0.013275,0.0383
-0.11002,0.059358,-0.1146,-0.08072,-0.018158,-0.0096132,0.019684,0.076753
-0.11978,0.064546,-0.12375,-0.11795,-0.015412,-0.005951,0.0383,0.081636
-0.10025,0.026093,-0.10147,-0.10666,-0.025788,0.015412,0.051423,0.077668
-0.08835,0.022736,-0.083162,-0.10147,-0.030671,0.042267,0.036164,0.11398
-0.084382,0.009308,-0.050507,-0.086519,-0.0206,0.034638,0.03769,0.10697
-0.04654,-0.013886,-0.031891,-0.076753,-0.020905,0.045319,0.073396,0.077974
0.019684,-0.077363,0.012665,-0.054475,-0.025483,0.057527,0.069429,0.031891
0.10269,-0.11215,-0.010529,-0.056916,-0.0090028,0.032197,0.023041,-0.030671
0.059052,-0.10452,-0.016022,-0.044709,0.011139,0.13535,0.064546,-0.034943
0.010834,-0.06363,-0.016632,-0.044404,0.03006,0.16739,0.075532,-0.031281
0.0099184,-0.11368,-0.020905,-0.04654,0.056001,0.064851,-0.0035096,-0.037079
-0.012055,-0.1088,-0.02182,-0.058747,0.06424,0.015412,-0.045319,-0.021515
-0.048676,-0.099641,-0.040742,-0.059663,0.048066,-0.009308,-0.072175,-0.026398
-0.034943,-0.050813,-0.070344,-0.070344,0.046235,-0.27481,-0.11032,-0.041962
-0.030976,-0.019989,-0.084993,-0.0795,0.064546,-0.56748,-0.10697,-0.052949
-0.042573,0.024262,-0.099641,-0.085908,0.021515,0.010529,0.017548,-0.067597
-0.081636,0.018158,-0.086824,-0.10361,-0.015106,0.15702,0.047456,-0.038911
-0.081636,0.048066,-0.10452,-0.087434,-0.034333,0.083162,0.032807,0.012665
-0.092317,0.075227,-0.12558,-0.092927,-0.037079,0.078584,0.025483,0.052949
-0.083772,0.060273,-0.1146,-0.087434,-0.02121,0.035554,0.029755,0.082551
-0.075532,0.032502,-0.092927,-0.10666,-0.0206,0.026093,0.041657,0.10636
-0.052644,-0.035859,-0.023651,-0.10636,-0.022126,0.023346,0.045624,0.10361
-0.0019837,-0.090791,-0.0099184,-0.066987,-0.026398,0.045014,0.061799,0.081941
0.035554,-0.10605,-0.023957,-0.045014,-0.010224,0.058747,0.073701,0.047456
0.033112,-0.10086,-0.017548,-0.059358,0.018158,0.059358,-0.022126,-0.017243
0.048371,-0.10452,-0.0013733,-0.060578,0.024872,0.026093,-0.093843,-0.056916
0.067292,-0.11765,0.011444,-0.05478,0.027314,-0.013275,-0.024567,-0.073091
0.060578,-0.12039,0.010529,-0.038911,0.048371,-0.015412,-0.01297,-0.08835
0.040131,-0.099641,-0.040742,-0.057221,0.075532,-0.031281,-0.020294,-0.077363
-0.0071717,-0.042267,-0.075227,-0.083467,0.059663,-0.020294,0.0028992,-0.051118
-0.028229,-0.03006,-0.077058,-0.084688,0.031281,0.019989,0.060273,-0.014191
-0.040742,-0.016022,-0.10056,-0.09659,0.015717,0.045624,0.082856,0.010529
-0.055085,0.024262,-0.11093,-0.084993,-0.0032044,0.023957,0.057832,0.027008
-0.084993,0.043183,-0.1088,-0.10727,-0.011139,0.024567,0.070649,0.039216
-0.092012,0.03006,-0.10819,-0.089876,-0.019379,0.019074,0.027924,0.041352
-0.088045,0.023957,-0.092927,-0.086824,-0.022126,-0.021515,-0.2089,0.026093
-0.10788,0.05539,-0.11276,-0.09781,-0.022126,-0.025788,-0.14023,0.035248
-0.097505,0.043793,-0.069123,-0.084993,-0.019074,0.016938,0.077363,0.068208
-0.064851,-0.025788,-0.044709,-0.065766,-0.014801,0.040131,0.073701,0.082856
-0.06302,-0.041657,-0.034028,-0.065461,0.002594,0.026093,0.051423,0.075837
-0.039216,-0.052033,-0.0028992,-0.061189,0.011749,0.022736,0.039521,0.044099
-0.0090028,-0.08957,-0.014496,-0.058747,0.011749,0.044099,0.0383,0.049592
0.033417,-0.12741,0.0080873,-0.038605,0.025788,0.033417,0.02884,0.037079
0.060273,-0.12497,0.012665,-0.029145,0.046845,-0.0041199,0.010529,0.0080873
0.0383,-0.09781,-0.035859,-0.06363,0.058137,-0.026093,-0.0080873,-0.017548
0.03006,-0.085908,-0.045014,-0.064546,0.045319,0.00045777,0.0050355,-0.03769
0.014191,-0.057832,-0.059052,-0.076448,0.027619,0.01236,0.015412,-0.065156
-0.019074,-0.028229,-0.08011,-0.091096,0.036164,0.012665,0.0099184,-0.055085
-0.036774,0.0074769,-0.10941,-0.099947,0.023651,0.025177,0.027924,-0.050507
-0.059968,0.031586,-0.12558,-0.1033,0.0016785,0.0080873,0.0019837,-0.052644
-0.02121,0.02182,-0.11765,-0.09659,-0.0019837,-0.0080873,-0.026703,-0.010834
-0.012665,0.010529,-0.07126,-0.096284,-0.014191,-0.009308,-0.017548,0.02945
-0.028229,-0.00015259,-0.052949,-0.084688,-0.011139,-0.0022889,-0.012665,0.056306
-0.04654,0.018158,-0.075837,-0.103,-0.017548,-0.0022889,-0.0019837,0.049897
-0.05539,-0.0016785,-0.075227,-0.083467,-0.02884,0.0032044,-0.0019837,0.051118
-0.042573,-0.047456,-0.022126,-0.059663,-0.026703,0.0077821,0.002594,0.052338
-0.022431,-0.086824,-0.0053407,-0.024567,-0.010834,0.011444,0.012055,0.016632
-0.01297,-0.076753,-0.013886,-0.048676,0.023041,0.0047303,0.0065614,0.023957
-0.010224,-0.056306,-0.019074,-0.073396,0.051728,0.019989,0.020294,0.024872
-0.013275,-0.05539,-0.030671,-0.043488,0.034333,0.030365,0.04593,0.010834
-0.025483,-0.10147,-0.030365,-0.052644,0.02121,0.0086976,0.036164,0.011139
-0.022736,-0.093843,-0.025483,-0.062409,0.023651,0.010834,0.025177,0.035859
-0.02121,-0.084382,-0.041047,-0.061189,0.028229,0.021515,0.00076295,0.019684
-0.0383,-0.059358,-0.070649,-0.074922,0.028229,-0.0071717,-0.014496,-0.013581
-0.056001,-0.013886,-0.083467,-0.10056,0.037079,-0.083162,-0.033112,-0.039521
-0.073396,0.025788,-0.11246,-0.095064,-0.0022889,-0.014191,-0.018463,-0.037385
-0.089265,0.057527,-0.11978,-0.10513,-0.02121,0.050202,0.043793,0.0035096
-0.086824,0.051728,-0.10697,-0.12345,-0.023651,0.026398,0.052338,0.033417
-0.069429,0.051423,-0.10361,-0.12192,-0.034638,0.031586,0.040131,0.0383
-0.073396,0.035554,-0.077058,-0.095064,-0.037079,0.038911,0.035554,0.015717
-0.069429,-0.0016785,-0.055695,-0.087129,-0.030365,0.040436,0.035554,0.031586
-0.027008,-0.046235,-0.010834,-0.05478,-0.014191,0.027314,0.03006,0.059968
0.0056458,-0.09659,-0.013581,-0.034638,0.0016785,0.022431,0.023651,0.028229
0.012665,-0.08072,-0.034028,-0.064546,0.028229,0.011444,0.0010681,-0.013275
0.041352,-0.091707,-0.014496,-0.052338,0.027008,0.015412,-0.0032044,-0.030365
0.074311,-0.12009,-0.037995,-0.049592,0.023651,0.018769,0.009308,0.0035096
0.10086,-0.070039,-0.03006,-0.049592,0.03769,0.013886,-0.0044251,0.025483
0.070039,-0.078889,-0.0096132,-0.059663,0.050202,0.0086976,-0.010224,-0.0044251
0.031891,-0.10636,-0.019684,-0.04715,0.04715,-0.0090028,-0.023041,-0.031586
-0.029145,-0.076143,-0.05417,-0.06424,0.041962,-0.014191,-0.024872,-0.049287
-0.05478,-0.032807,-0.073091,-0.071565,0.041352,-0.0086976,-0.015412,-0.05539
-0.063935,-0.00076295,-0.10544,-0.084688,0.024872,0.0038148,-0.0096132,-0.0053407
-0.069429,0.022431,-0.084993,-0.094759,0.0065614,0.0013733,-0.0080873,0.009308
-0.053254,0.023957,-0.099641,-0.090791,-0.0065614,-0.0035096,-0.011139,0.0050355
-0.061189,0.035554,-0.10117,-0.1088,-0.0056458,-0.0032044,0.014191,0.027619
-0.068818,-0.005951,-0.059052,-0.08835,-0.019074,-0.0074769,0.020294,0.033722
-0.054475,-0.014496,-0.09659,-0.095369,-0.029145,-0.0013733,0.010529,0.048981
-0.058747,0.023651,-0.092927,-0.099947,-0.017548,0.0013733,0.037079,0.067597
-0.039826,0.011444,-0.056001,-0.082246,-0.017243,0.014496,0.043793,0.072786
-0.033417,-0.031891,-0.02884,-0.085603,-0.00015259,0.042878,0.050507,0.063325
-0.0206,-0.067903,0.012665,-0.069734,0.0053407,0.059358,0.06302,0.058442
-0.0035096,-0.098421,-0.00045777,-0.047456,0.0056458,0.030976,0.034333,0.025788
0.002594,-0.090181,-0.017548,-0.036164,0.026093,-0.0035096,0.0053407,-0.014801
0.0065614,-0.091707,-0.019074,-0.059052,0.034943,-0.015106,0.0028992,-0.06302
-0.013581,-0.088045,-0.026398,-0.057527,0.039216,-0.0099184,-0.0096132,-0.083162
-0.028534,-0.093538,-0.027619,-0.058442,0.030976,0.0068666,-0.00045777,-0.052033
-0.0044251,-0.071565,-0.03769,-0.058137,0.033417,0.010529,0.010834,0.0065614
-0.017243,-0.034638,-0.07126,-0.073396,0.02884,0.0041199,0.022126,0.0099184
-0.048676,0.010529,-0.12375,-0.087434,0.027924,-0.0028992,0.011139,0.023957
-0.056916,0.057527,-0.12863,-0.099947,0.011749,0.00015259,0.013581,0.046845
-0.050813,0.036469,-0.11063,-0.092927,-0.017548,0.0077821,0.0035096,0.056001
-0.067903,0.045624,-0.10513,-0.10361,-0.027314,0.014191,0.00045777,0.090486
-0.075837,0.044099,-0.092622,-0.092317,-0.038911,0.036774,0.028229,0.12406
-0.076753,0.035248,-0.10056,-0.094453,-0.034943,0.036469,0.036774,0.1088
-0.04593,-0.017548,-0.059358,-0.076753,-0.015412,0.034943,0.023957,0.081941
-0.052033,-0.017548,-0.065766,-0.081636,0.0019837,0.028534,0.01297,0.023651
-0.039521,-0.06424,-0.015717,-0.067292,0.0028992,0.0077821,-0.014191,-0.010224
-0.021515,-0.098116,0.0038148,-0.060578,0.0074769,-0.0038148,-0.020294,-0.041352
-0.019684,-0.094759,-0.01297,-0.061494,0.040131,-0.019989,-0.022736,-0.060578
-0.0053407,-0.103,-0.005951,-0.06363,0.055695,-0.005951,0.0035096,-0.047761
0.0065614,-0.10575,-0.010834,-0.060273,0.026703,0.026093,0.013581,-0.066072
0.023957,-0.092622,-0.025483,-0.060273,0.019684,0.031586,0.017243,-0.094148
0.027314,-0.081331,-0.044709,-0.065461,0.025483,0.023346,-0.00076295,-0.10178
0.0071717,-0.062409,-0.062715,-0.059358,0.028229,0.012665,-0.0019837,-0.072786
-0.0044251,-0.047761,-0.080415,-0.055085,0.027619,0.0065614,-0.0041199,-0.027008
-0.030365,-0.002594,-0.10513,-0.089265,0.022736,-0.010834,-0.022126,0.01297
-0.028229,0.033112,-0.11246,-0.12741,0.0047303,-0.026398,-0.022736,0.02884
-0.042573,0.045319,-0.10971,-0.10727,-0.021515,-0.0053407,-0.0062562,0.043488
-0.039521,0.026703,-0.078584,-0.081025,-0.030976,-0.00076295,0.012055,0.059358
-0.076143,0.025788,-0.081941,-0.098421,-0.016327,0.0022889,0.030976,0.070344
-0.092012,0.030671,-0.090486,-0.099947,-0.016632,-0.009308,0.029145,0.088045
-0.051118,-0.027619,-0.029145,-0.038605,-0.019379,0.0019837,0.023651,0.11154
-0.0080873,-0.045319,-0.059052,-0.085603,0.0047303,0.016632,0.016938,0.07187
0.00076295,-0.042878,-0.036469,-0.083467,0.016632,0.016938,-0.0028992,0.015412
0.027924,-0.085603,0.010529,-0.048676,-0.00076295,0.018158,-0.0041199,0.0080873
0.050202,-0.11948,0.00045777,-0.050202,0.016632,0.011139,0.0050355,-0.010529
0.043183,-0.098726,-0.016632,-0.065766,0.046845,0.016327,0.014801,-0.041047
0.014801,-0.103,-0.019684,-0.060578,0.048981,0.017853,0.0038148,-0.07126
0.035248,-0.11032,-0.0047303,-0.045014,0.043488,0.024872,0.0099184,-0.089265
0.011749,-0.10849,-0.030976,-0.048371,0.027619,0.024872,0.020294,-0.096895
0.012055,-0.073396,-0.052644,-0.077668,0.024262,0.023957,0.027008,-0.076753
0.0016785,-0.014191,-0.10086,-0.103,0.014801,0.01236,0.01297,-0.035859
-0.051423,0.044404,-0.11551,-0.092927,-0.0086976,0.0038148,-0.010224,-0.030365
-0.027314,0.051728,-0.12314,-0.092927,-0.0062562,-0.0086976,-0.049592,-0.012055
-0.069734,0.060578,-0.11765,-0.10788,-0.016632,-0.0032044,-0.049287,0.034028
-0.12772,0.049592,-0.11612,-0.094453,-0.023041,-0.066072,-0.029755,0.066682
-0.12222,0.044709,-0.098726,-0.10117,-0.013275,-0.034333,-0.0013733,0.094453
-0.089265,0.024567,-0.081941,-0.091707,-0.022431,0.049592,0.063325,0.11643
-0.088045,-0.01236,-0.063935,-0.075837,-0.024872,0.032502,0.071565,0.10422
-0.077668,-0.036469,-0.042267,-0.082856,-0.0032044,0.033112,0.066682,0.075227
-0.016327,-0.10666,0.023346,-0.037385,0.005951,0.022736,0.050507,0.092622
0.011139,-0.12802,0.061799,-0.021515,0.015106,-0.043793,0.041352,0.056306
0.0035096,-0.12619,0.010224,-0.040742,0.041047,-0.029755,0.019379,0.0068666
0.019379,-0.11734,-0.041962,-0.04715,0.031281,0.04715,0.011749,-0.0032044
0.0041199,-0.070954,-0.032197,-0.069429,0.037995,0.074617,-0.053864,-0.027619
-0.014496,-0.048066,-0.053864,-0.07126,0.036774,0.28702,0.0013733,-0.020294
-0.036469,-0.032807,-0.070344,-0.061494,0.034333,0.13169,0.052033,-0.0041199
-0.044404,-0.021515,-0.070344,-0.082246,0.013581,-0.04654,0.056306,0.0068666
-0.055085,0.011139,-0.099641,-0.08896,0.0019837,0.044709,0.040436,0.013886
-0.084077,0.040436,-0.13107,-0.10513,-0.0071717,0.020905,-0.0090028,0.013581
-0.083162,0.032197,-0.10208,-0.090486,-0.010529,-0.2385,-0.14176,0.0071717
-0.075837,0.026093,-0.099031,-0.103,0.02884,-0.58976,-0.13016,0.01297
-0.046845,0.002594,-0.085298,-0.094453,-0.0068666,0.0047303,0.04593,0.02945
-0.028229,0.02182,-0.088045,-0.10513,-0.038911,0.16678,0.053864,0.039521
0.0041199,-0.01297,-0.049897,-0.099031,-0.037385,0.081331,0.05417,0.022126
0.020294,-0.027924,-0.066682,-0.086519,-0.016327,0.085298,0.04715,0.0041199
0.01297,-0.076753,-0.025788,-0.08072,0.0035096,0.063325,0.0016785,-0.016327
0.028229,-0.14084,0.013581,-0.054475,0.011139,0.054475,-0.0068666,-0.020294
0.049897,-0.15854,-0.016327,-0.041047,0.033417,0.031281,0.0065614,-0.024567
0.025788,-0.098116,-0.01236,-0.056306,0.049897,-0.0077821,-0.016327,-0.055695
0.016632,-0.077668,-0.024567,-0.049592,0.042267,0.005951,-0.013275,-0.040742
0.015412,-0.094148,-0.0074769,-0.042878,0.02945,0.020294,0.011139,-0.062104
-0.017243,-0.070954,-0.034638,-0.049287,0.034333,0.0206,0.035248,-0.069123
-0.027619,-0.00015259,-0.065766,-0.078279,0.04715,0.01297,0.019379,-0.045014
-0.041657,-0.00015259,-0.085908,-0.064851,0.027924,0.0099184,0.015412,-0.033417
-0.040742,-0.0053407,-0.10971,-0.078889,0.019074,0.0022889,0.025788,-0.0062562
-0.10117,0.086213,-0.13657,-0.11337,0.010834,-0.030976,-0.12039,0.014191
-0.10819,0.092622,-0.096895,-0.11368,-0.010834,-0.051118,-0.22812,0.051423
-0.0972,0.037995,-0.089265,-0.10666,-0.041962,-0.0013733,0.039826,0.069123
-0.073396,0.031891,-0.10025,-0.092317,-0.032502,0.026093,0.10208,0.076448
-0.075227,0.03006,-0.087434,-0.0972,-0.030976,0.059052,0.095979,0.11185
-0.061189,-0.0077821,-0.053254,-0.086824,-0.041962,0.058442,0.094759,0.085298
-0.010224,-0.056916,-0.025483,-0.093843,-0.023041,0.048371,0.073701,0.033722
0.018158,-0.1088,0.027619,-0.060578,-0.0090028,0.037385,0.059052,0.0071717
0.026093,-0.13993,0.039521,-0.038911,0.0086976,0.024262,0.052033,0.02121
0.017548,-0.11673,-0.019684,-0.040742,0.040436,0.0077821,0.021515,0.00045777
0.02182,-0.11002,-0.030365,-0.031586,0.050507,0.00076295,-0.0022889,-0.022126
0.033112,-0.092927,-0.04593,-0.067292,0.054475,-0.0016785,-0.00045777,-0.011444
0.018769,-0.095674,-0.03006,-0.058747,0.060578,0.0065614,-0.0086976,-0.049287
-0.00045777,-0.072175,-0.047761,-0.057221,0.040131,0.012055,-0.01297,-0.089265
-0.048371,-0.054475,-0.053254,-0.068208,0.025177,-0.0032044,-0.017243,-0.087739
-0.071565,-0.00015259,-0.08896,-0.08072,0.025177,-0.02945,-0.025788,-0.018158
-0.084382,0.016632,-0.10727,-0.087434,0.016938,-0.017548,-0.0074769,0.030976
-0.1146,0.056611,-0.12039,-0.11765,0.002594,-0.0056458,0.013275,0.065461
-0.11643,0.070649,-0.083162,-0.10758,-0.024567,0.0086976,0.029755,0.12375
-0.099947,0.060578,-0.10361,-0.11856,-0.043793,0.027924,0.045624,0.15274
-0.07126,0.02945,-0.10269,-0.097505,-0.03769,0.04715,0.067292,0.12497
-0.050507,-0.009308,-0.078279,-0.092317,-0.042573,0.044404,0.053559,0.10605
-0.018769,-0.042267,-0.048676,-0.07126,-0.032807,0.023041,0.027008,0.069429
0.0099184,-0.05478,-0.033722,-0.064851,-0.012665,0.018463,0.0053407,0.01297
0.043183,-0.095369,-0.022736,-0.059052,0.0074769,0.014801,-0.0074769,-0.033112
0.053864,-0.1088,-0.013886,-0.049287,0.023041,0.0022889,-0.022431,-0.081331
0.059968,-0.12497,0.005951,-0.05417,0.033112,-0.013581,-0.02121,-0.087739
0.066682,-0.11673,-0.017853,-0.044099,0.043793,-0.011749,-0.023041,-0.057832
0.056306,-0.088655,-0.039216,-0.052338,0.045319,-0.010224,-0.021515,-0.022736
0.049897,-0.10758,-0.04654,-0.057527,0.056916,-0.0096132,-0.012665,0.012055
0.021515,-0.081941,-0.065156,-0.053559,0.051423,-0.009308,-0.027008,-0.020905
-0.014191,-0.03006,-0.074922,-0.081331,0.034028,-0.019379,-0.032807,-0.066682
-0.033112,0.01236,-0.097505,-0.086824,0.024872,-0.017243,-0.017548,-0.062104
-0.061494,0.043793,-0.0972,-0.1033,0.0013733,-0.0047303,0.0035096,-0.043793
-0.0795,0.034028,-0.084382,-0.089265,-0.0206,-0.0047303,0.0096132,0.0050355
-0.099947,0.041962,-0.096895,-0.10117,-0.022736,-0.005951,0.0035096,0.035554
-0.12345,0.061494,-0.10971,-0.086519,-0.02945,0.016632,0.0010681,0.02884
-0.12009,0.062104,-0.10697,-0.11887,-0.032502,0.0206,-0.016632,0.016938
-0.10758,0.011444,-0.053254,-0.10361,-0.018463,-0.016022,-0.0074769,0.058442
-0.090791,-0.015717,-0.041657,-0.065156,-0.0056458,-0.06302,0.01297,0.081941
-0.055695,-0.0077821,-0.022736,-0.060578,-0.0032044,0.05417,0.074311,0.090181
-0.0022889,-0.10666,-0.0074769,-0.062715,0.0028992,0.071565,0.08011,0.062409
0.013581,-0.13657,0.014191,-0.066682,0.0071717,0.053559,0.070344,0.023041
0.017243,-0.11276,-0.0038148,-0.043183,0.011749,0.057527,0.050202,-0.040742
0.026093,-0.096895,-0.028534,-0.056916,0.038911,0.032502,0.019074,-0.075227
0.018158,-0.092317,-0.031586,-0.05478,0.046845,0.023346,0.0050355,-0.078279
0.032197,-0.083467,-0.040742,-0.057527,0.044404,0.0086976,0.0032044,-0.04654
0.02884,-0.056916,-0.069429,-0.059052,0.042267,-0.0019837,0.00076295,-0.021515
-0.0010681,-0.023957,-0.091096,-0.084688,0.017243,0.0047303,0.0019837,-0.0080873
-0.041657,0.0062562,-0.10941,-0.08896,0.015717,0.0038148,-0.011444,0.022736
-0.059968,0.036469,-0.11551,-0.10513,0.0096132,-0.0022889,-0.0062562,0.037079
-0.072786,0.026398,-0.10452,-0.09781,-0.0090028,-0.010224,-0.015106,0.039521
-0.065156,0.02182,-0.094759,-0.099947,-0.017243,0.00015259,-0.0086976,0.064546
-0.077363,0.024567,-0.07126,-0.084382,-0.015106,0.00015259,-0.0013733,0.084382
-0.092012,0.011444,-0.050813,-0.087434,-0.022126,-0.00015259,0.019074,0.070039
-0.053864,-0.04593,-0.042267,-0.051728,-0.030365,0.027008,0.075532,0.10758
-0.034943,-0.016327,-0.075227,-0.093233,-0.013581,0.033112,0.048371,0.065156
-0.0065614,-0.046235,-0.028229,-0.064546,0.002594,0.024567,0.019684,0.01297
0.058442,-0.11002,-0.0022889,-0.039216,0.015717,0.035248,0.021515,0.0074769
0.091402,-0.11673,-0.019684,-0.05417,0.036164,0.01236,-0.011139,-0.030976
0.068513,-0.059358,-0.028534,-0.0795,0.027314,-0.0077821,-0.017243,-0.065156
0.019989,-0.092317,-0.029755,-0.077668,0.030976,-0.0071717,-0.020294,-0.067292
-0.0028992,-0.13748,-0.0068666,-0.046845,0.033722,-0.0050355,-0.02121,-0.066682
-0.0053407,-0.1384,0.019379,-0.022126,0.031281,-0.0068666,-0.030976,-0.069429
-0.022126,-0.086519,-0.070039,-0.051118,0.049592,-0.022126,-0.0206,-0.082246
-0.052949,0.0083925,-0.11276,-0.092927,0.039521,-0.019989,-0.018769,-0.087739
-0.083162,0.050202,-0.12131,-0.096895,0.010529,-0.013581,0.005951,-0.032807
-0.093233,0.057527,-0.11124,-0.10483,-0.016938,-0.00015259,0.010529,0.0071717
-0.11215,0.088045,-0.11734,-0.11521,-0.025177,0.005951,0.015412,0.036774
-0.11063,0.050507,-0.11124,-0.10788,-0.033417,0.018769,0.024872,0.088045
-0.094148,0.033722,-0.092012,-0.096284,-0.040742,0.032197,0.031281,0.13993
-0.091096,0.031891,-0.069429,-0.10758,-0.0206,0.019989,0.027008,0.11398
-0.0795,-0.018769,-0.032502,-0.084688,-0.024262,0.019989,0.039826,0.10361
-0.022126,-0.048676,-0.044404,-0.080415,-0.018769,0.023346,0.033722,0.086519
0.019684,-0.09659,-0.0038148,-0.058442,0.0096132,0.012055,0.015412,0.07126
0.035859,-0.12375,0.013275,-0.049592,0.02182,0.016022,0.016632,0.025177
0.023041,-0.084382,-0.0086976,-0.065766,0.034943,0.011139,0.025788,0.0086976
0.037995,-0.085908,-0.0206,-0.075532,0.040436,0.015412,0.037079,0.022126
0.058137,-0.11429,-0.028229,-0.045319,0.02945,0.022126,0.033417,-0.034943
0.054475,-0.096895,-0.040436,-0.055695,0.042267,0.016022,0.023041,-0.095369
0.0016785,-0.04654,-0.052644,-0.068818,0.045319,0.019074,0.026703,-0.082246
-0.039521,-0.034028,-0.074311,-0.082856,0.014801,0.0080873,0.02945,-0.064546
-0.059663,-0.00076295,-0.094148,-0.090486,-0.002594,0.0062562,0.023651,-0.037079
-0.099947,0.027619,-0.10971,-0.10086,-0.0019837,0.0022889,0.021515,-0.014801
-0.10575,0.037995,-0.12161,-0.10086,-0.0074769,-0.0062562,-0.0080873,0.014801
-0.091402,0.03769,-0.12741,-0.10941,-0.0206,-0.0053407,-0.011444,0.039826
-0.0074769,0.0044251,-0.082551,-0.086519,-0.022736,0.00015259,-0.0065614,0.055695
-0.051423,0.02945,-0.069123,-0.076448,-0.0096132,-0.0016785,-0.024262,0.055695
-0.050507,-0.0047303,-0.049897,-0.08835,-0.0041199,0.002594,-0.014801,0.057221
-0.057832,-0.062715,0.0056458,-0.06424,-0.01236,0.017243,-0.0096132,0.049592
-0.077363,-0.050507,-0.044099,-0.069734,0.005951,0.012665,-0.0035096,0.020905
-0.041962,-0.10086,-0.010224,-0.050507,0.016632,0.014496,0.0010681,0.045624
0.031586,-0.14878,0.0096132,0.0013733,0.024872,0.013275,0.0096132,0.021515
0.054475,-0.11246,-0.0083925,-0.032197,0.051423,-0.0077821,0.014801,-0.037385
0.023957,-0.05539,-0.057221,-0.095674,0.055695,-0.027008,0.024872,-0.073701
0.039521,-0.058747,-0.041047,-0.05478,0.035248,-0.0053407,0.052949,-0.056916
0.054475,-0.074311,-0.044099,-0.054475,0.039521,0.062409,0.11215,-0.07126
0.013886,-0.046235,-0.070344,-0.084688,0.04715,0.11856,0.086824,-0.065766
-0.015717,-0.026703,-0.082856,-0.084993,0.014801,0.11002,-0.077363,-0.016327
-0.068208,0.02945,-0.103,-0.10361,-0.0041199,0.12497,-0.076143,-0.0071717
-0.10575,0.047456,-0.08072,-0.10056,-0.018158,0.21134,-0.055695,0.041352
-0.08896,0.030671,-0.0972,-0.11063,0.0035096,-0.44877,-0.1622,0.060273
-0.092012,0.042573,-0.10452,-0.10544,0.0038148,-0.56016,-0.0206,0.061494
-0.074617,0.019074,-0.095064,-0.10452,-0.043183,0.16678,0.098726,0.042267
-0.064851,0.015412,-0.0795,-0.086824,-0.044709,0.121,0.059968,0.043793
-0.033722,-0.011749,-0.062104,-0.069123,-0.019074,0.064851,0.039216,0.039216
-0.022431,-0.034638,-0.049897,-0.058137,0.0016785,0.063325,0.027619,0.027619
-0.014496,-0.06363,-0.019684,-0.057221,0.015106,0.034638,0.016022,0.015717
-0.0035096,-0.09659,-0.013581,-0.055695,0.013581,0.032807,0.029755,0.012055
0.0013733,-0.10483,-0.012055,-0.05478,0.0041199,0.031281,0.040436,-0.0041199
0.0053407,-0.11337,-0.0083925,-0.062409,0.022126,0.046235,0.04715,-0.017243
0.009308,-0.10391,-0.017853,-0.068208,0.033417,0.032197,0.045014,-0.0056458
0.025483,-0.11826,-0.0083925,-0.052949,0.045014,0.017853,0.019379,-0.030671
0.027924,-0.079805,-0.062715,-0.066987,0.046235,0.016327,0.005951,-0.04715
-0.0056458,-0.047761,-0.07248,-0.071565,0.043488,0.014801,-0.00045777,-0.029145
-0.04715,0.0035096,-0.090486,-0.096284,0.037079,-0.015412,-0.0047303,0.0047303
-0.032807,0.022126,-0.10758,-0.10666,0.0096132,0.0010681,0.020905,0.032807
-0.0795,0.036469,-0.12955,-0.10544,-0.015412,0.015412,0.037079,0.073396
-0.099031,0.049897,-0.11551,-0.11032,-0.030365,0.013275,0.02945,0.096284
-0.095979,0.044709,-0.094759,-0.085603,-0.043488,0.015412,0.045319,0.11643
-0.1033,0.013275,-0.019989,-0.068513,-0.035554,0.022126,0.034943,0.10605
-0.087739,-0.0019837,-0.042267,-0.064546,-0.0047303,0.010529,0.005951,0.060578
-0.063935,0.0206,-0.053864,-0.070954,0.0032044,0.005951,0.00045777,0.017243
-0.022736,-0.055695,-0.044404,-0.078279,-0.0068666,0.023041,-0.0032044,-0.0035096
-0.00076295,-0.090486,-0.015412,-0.062715,-0.0032044,0.02945,0.0080873,-0.01236
0.036774,-0.096895,-0.027619,-0.064546,0.0099184,0.025177,-0.0068666,-0.014801
0.044099,-0.11765,-0.026398,-0.081025,0.025788,0.012055,-0.014496,-0.049592
0.056611,-0.12406,-0.0047303,-0.052644,0.026703,0.0044251,-0.045319,-0.083162
0.051423,-0.099641,-0.029755,-0.049287,0.03006,-0.0071717,-0.063935,-0.07126
0.043183,-0.091402,-0.032807,-0.051118,0.047761,-0.086213,-0.049897,-0.077058
0.022736,-0.060578,-0.055085,-0.06363,0.041657,-0.061494,-0.034943,-0.073396
-0.016938,-0.017548,-0.06424,-0.074617,0.0383,0.023041,0.015412,-0.073091
-0.028534,0.009308,-0.099641,-0.065766,0.023041,0.015106,0.027314,-0.010529
-0.053254,0.027619,-0.10452,-0.081636,0.019684,0.0038148,0.033112,0.049592
-0.079805,0.019989,-0.074617,-0.10147,0.020905,-0.0074769,0.032197,0.054475
-0.099947,0.0038148,-0.10544,-0.1146,-0.014801,0.019074,0.032197,0.070344
-0.11215,0.037079,-0.10727,-0.10666,-0.024872,0.01236,0.017853,0.065156
-0.12009,0.060273,-0.10361,-0.11551,-0.020294,0.020905,0.027924,0.075837
-0.064546,0.021515,-0.066682,-0.095674,-0.034333,0.047456,0.055085,0.085603
-0.045624,-0.020905,-0.051728,-0.078889,-0.041657,0.041657,0.04593,0.079805
0.0032044,-0.065766,-0.016327,-0.041657,-0.019684,0.02121,0.014191,0.070344
0.018769,-0.08072,-0.029145,-0.056306,0.00076295,0.022431,0.025483,0.068208
0.018769,-0.099641,-0.024567,-0.058747,0.025483,0.020905,0.027008,-0.016938
0.041962,-0.121,-0.012665,-0.037079,0.026703,0.029145,0.035859,-0.070649
0.027619,-0.13138,-0.0096132,-0.051118,0.048371,0.01236,0.048371,-0.092927
0.010529,-0.099641,-0.018158,-0.047761,0.061799,0.00076295,0.020294,-0.086824
0.00045777,-0.090181,-0.016327,-0.05539,0.051423,-0.031891,-0.17502,-0.058747
0.0041199,-0.041657,-0.075227,-0.068818,0.046845,-0.04593,-0.16495,-0.051728
0.020905,-0.032502,-0.087434,-0.093538,0.031281,-0.0099184,0.055085,-0.07187
0.0013733,0.0022889,-0.10025,-0.094453,0.015412,0.014801,0.05417,-0.063935
-0.043183,0.034333,-0.10605,-0.1033,-0.0019837,0.00015259,0.028229,0.021515
-0.091402,0.051423,-0.10758,-0.090791,-0.014801,0.018769,0.037079,0.056611
-0.096895,0.056306,-0.10513,-0.10788,-0.025177,0.022431,0.041352,0.059968
-0.10788,0.037995,-0.085908,-0.10391,-0.0206,0.011139,0.033417,0.084382
-0.10971,0.034333,-0.062409,-0.073091,-0.025177,0.024567,0.02945,0.091402
-0.085603,-0.009308,-0.052644,-0.07126,-0.032197,0.017243,0.016938,0.092622
-0.063325,-0.027314,-0.045014,-0.093233,-0.012055,0.014496,0.018769,0.078279
-0.035859,-0.073396,-0.019074,-0.052644,0.010834,0.016022,0.014801,0.02945
-0.0050355,-0.12558,0.0035096,-0.030976,0.012665,0.016327,0.0016785,-0.022736
-0.013581,-0.094453,-0.022736,-0.076753,0.027314,0.0053407,-0.010224,-0.048371
-0.0044251,-0.077668,-0.011749,-0.067292,0.032197,0.0053407,-0.0035096,-0.014191
0.0038148,-0.083467,-0.026398,-0.060578,0.019379,0.0044251,0.025788,0.059663
0.0050355,-0.08072,-0.030671,-0.066682,0.027924,0.011444,0.026093,0.10147
-0.012665,-0.057832,-0.059968,-0.079194,0.025788,0.044404,0.067903,0.08957
-0.010529,-0.042878,-0.061799,-0.062715,0.018769,0.070649,0.080415,0.044099
-0.017243,-0.016938,-0.092317,-0.085908,0.0038148,0.037385,0.048981,-0.015717
-0.0074769,-0.03769,-0.10056,-0.074922,0.0099184,0.033112,0.041352,-0.014496
-0.02121,0.011139,-0.12039,-0.10544,0.019379,-0.0047303,-0.053864,-0.041657
-0.039216,0.017853,-0.080415,-0.086519,0.014801,-0.07187,-0.069429,-0.057527
-0.043793,0.052338,-0.078279,-0.084993,-0.011139,-0.067292,0.002594,-0.0086976
-0.056916,0.07126,-0.084077,-0.082856,-0.022126,-0.0047303,0.0035096,-0.011444
-0.043183,-0.01236,-0.066072,-0.082246,-0.017548,0.0047303,0.018769,0.018158
-0.041047,-0.034943,-0.061799,-0.090486,-0.010529,0.013886,0.025483,0.041962
-0.026703,-0.054475,-0.05478,-0.08835,-0.00015259,0.032197,0.03006,0.025788
-0.0032044,-0.068818,-0.018463,-0.062715,0.0019837,0.022736,0.03769,0.019379
0.0068666,-0.10056,0.0022889,-0.040131,0.0038148,0.021515,0.031281,0.0041199
0.043183,-0.10788,-0.0068666,-0.057221,0.020905,0.023346,0.0077821,-0.024872
0.036164,-0.10452,0.00015259,-0.057527,0.041962,0.011444,0.002594,-0.010224
0.016938,-0.10452,-0.022126,-0.057221,0.034943,0.023346,0.0050355,-0.0062562
-0.0019837,-0.088045,-0.050202,-0.061189,0.037385,0.015412,-0.00015259,-0.028534
-0.019074,-0.064546,-0.061189,-0.074617,0.039521,0.0086976,-0.015106,-0.039521
-0.039826,-0.0383,-0.074617,-0.08072,0.030365,-0.0016785,-0.014801,-0.058747
-0.074922,-0.0086976,-0.093233,-0.084993,0.016938,0.00076295,0.002594,-0.036469
-0.082246,0.020294,-0.1146,-0.099336,0.0056458,-0.0022889,0.0080873,0.014801
-0.098421,0.038605,-0.11704,-0.103,-0.0032044,-0.0077821,0.012665,0.027924
-0.1033,0.049287,-0.10727,-0.099947,-0.0022889,-0.0016785,0.022126,0.046235
-0.083772,0.049897,-0.095979,-0.094453,-0.017548,0.012055,0.0096132,0.074006
-0.07187,0.026398,-0.090486,-0.082246,-0.022126,0.016022,0.023957,0.081636
-0.051423,0.026398,-0.068818,-0.081331,-0.0041199,0.0053407,0.026703,0.066072
-0.0383,0.013275,-0.041047,-0.085908,0.0080873,0.013275,0.024872,0.057221
-0.0062562,-0.068513,0.0099184,-0.059052,0.0065614,0.033417,0.034943,0.058137
0.016022,-0.10422,0.02182,-0.046845,0.0090028,0.031281,0.019989,0.018158
0.039826,-0.11154,-0.019989,-0.059358,0.027314,0.0047303,0.020294,-0.0086976
0.04593,-0.12161,-0.019074,-0.06302,0.028229,0.0047303,0.011749,-0.041657
0.048066,-0.1149,-0.015717,-0.05478,0.023651,0.010224,-0.0086976,-0.083467
0.024872,-0.094148,-0.028229,-0.060883,0.027619,0.0077821,-0.0056458,-0.10147
-0.0047303,-0.075837,-0.046845,-0.066377,0.035248,0.0080873,-0.0032044,-0.062104
-0.036469,0.0077821,-0.094453,-0.073396,0.026093,0.016632,0.02121,-0.002594
-0.038605,-0.00076295,-0.081331,-0.087739,0.023041,-0.00076295,0.022126,0.028229
-0.019074,-0.013886,-0.093538,-0.098726,0.020905,0.0028992,0.012055,0.029145
0.0019837,0.0047303,-0.099031,-0.094453,0.00076295,-0.0022889,0.005951,0.026093
0.015106,0.019989,-0.1088,-0.088655,-0.009308,0.0062562,0.012055,0.086213
-0.067597,0.028534,-0.10452,-0.11154,-0.017548,0.034638,0.029145,0.10208
-0.095979,0.010529,-0.033112,-0.076753,-0.029755,0.026703,0.025177,0.090486
-0.12558,0.0016785,-0.068818,-0.044404,-0.040436,0.011444,0.016938,0.05417
-0.13657,-0.0022889,-0.082856,-0.075532,-0.0080873,0.002594,-0.024567,0.011444
-0.11795,-0.01297,-0.063935,-0.11673,-0.00015259,0.0086976,-0.033112,-0.011444
-0.037079,-0.062715,-0.017548,-0.065461,0.0035096,-0.048981,-0.0068666,-0.018463
-0.0071717,-0.10697,0.026398,-0.052949,0.016938,-0.046235,-0.011139,-0.023346
-0.031586,-0.10452,-0.01236,-0.059358,0.022126,0.045014,0.041962,-0.009308
-0.015717,-0.099336,-0.0090028,-0.060273,0.039826,0.020905,0.061189,-0.0050355
-0.00015259,-0.10208,-0.0016785,-0.07126,0.034333,0.025483,0.04593,-0.0056458
0.023346,-0.095979,-0.030671,-0.078279,0.02884,0.035554,0.051728,0.015106
0.014191,-0.051423,-0.06302,-0.077058,0.029755,0.022736,0.050202,0.034333
0.0010681,-0.037385,-0.07126,-0.075837,0.028229,0.014496,0.027314,0.030976
-0.016327,-0.0074769,-0.077058,-0.065766,0.015717,-0.0028992,0.017243,0.053559
-0.03769,0.017548,-0.12284,-0.077363,-0.0010681,-0.0071717,0.025177,0.033417
-0.044709,0.056001,-0.091402,-0.0795,-0.0010681,0.0068666,0.033112,0.0047303
-0.036774,0.058442,-0.11887,-0.082246,0.0053407,0.028534,-0.028534,0.025788
-0.044709,0.024567,-0.10727,-0.10575,-0.00015259,0.019074,-0.11215,0.025177
-0.057832,0.043793,-0.091402,-0.11032,-0.022431,-0.023041,-0.053559,0.028229
-0.039521,-0.0068666,-0.064546,-0.095064,-0.02884,-0.0074769,-0.016632,0.031891
-0.023346,-0.028534,-0.052033,-0.064546,-0.017548,-0.0016785,-0.010224,0.0032044
-0.016327,-0.046235,-0.027924,-0.058137,-0.012665,0.0077821,0.027008,-0.0056458
0.016022,-0.082246,-0.0383,-0.060578,-0.0035096,-0.056611,0.03006,-0.0083925
0.02182,-0.11032,-0.022126,-0.066987,0.010529,-0.027008,0.050507,-0.014496
0.02884,-0.10971,0.0077821,-0.04715,0.026093,0.031586,0.039521,-0.045624
0.011139,-0.10239,0.0013733,-0.048371,0.04593,0.12894,0.022126,-0.059663
0.0071717,-0.12406,-0.011444,-0.027619,0.069123,0.26749,-0.019684,-0.061189
0.0010681,-0.092622,-0.046235,-0.059663,0.077363,0.0047303,-0.069734,-0.052033
-0.0053407,-0.059663,-0.065156,-0.08835,0.053254,-0.16678,-0.025483,-0.037385
-0.013275,-0.033722,-0.065156,-0.08957,0.016632,-0.026093,-0.00015259,-0.010224
-0.032502,-0.0062562,-0.091096,-0.086824,-0.00045777,-0.023041,-0.012665,0.011139
-0.036774,0.028229,-0.11093,-0.092927,-0.00015259,-0.0090028,-0.0013733,0.011749
-0.045319,0.028534,-0.098421,-0.09781,-0.009308,0.011139,0.022126,0.013275
-0.066987,0.026093,-0.10025,-0.08957,-0.02121,-0.0022889,0.021515,0.025788
-0.08835,0.030671,-0.10239,-0.092927,-0.018769,-0.0099184,0.03006,0.02945
-0.091096,0.044709,-0.096895,-0.10788,-0.026398,-0.0019837,0.023957,0.045014
-0.067903,0.014191,-0.066377,-0.087434,-0.027314,0.0086976,0.035859,0.055695
-0.059052,-0.0056458,-0.055695,-0.080415,-0.016938,0.020294,0.035248,0.049287
-0.039826,-0.042878,-0.03769,-0.061189,-0.0019837,0.01297,0.019989,0.036774
-0.010834,-0.086213,-0.019989,-0.051118,0.0096132,0.0050355,0.026093,0.08835
0.010834,-0.10025,-0.00045777,-0.048676,0.027314,0.0065614,0.013886,0.074311
0.038911,-0.11673,-0.0022889,-0.073701,0.041047,0.0068666,0.0019837,0.024872
0.026093,-0.11551,0.013581,-0.050202,0.035859,0.016938,0.020294,-0.0068666
0.020294,-0.11185,-0.0044251,-0.038605,0.028229,0.019379,0.015412,-0.033722
-0.017548,-0.060578,-0.018158,-0.055085,0.0383,0.010529,0.016938,-0.031891
-0.045624,-0.056001,-0.042267,-0.062409,0.046235,0.0041199,0.0074769,-0.040436
-0.057221,-0.035859,-0.08072,-0.070649,0.031586,0.00015259,0.013886,-0.04593
-0.06302,0.014191,-0.12985,-0.10147,0.02182,-0.0041199,0.0071717,-0.019379
-0.060883,0.034028,-0.12375,-0.11124,0.0099184,-0.0047303,0.010834,0.025177
-0.052033,0.019989,-0.10025,-0.10239,-0.0022889,0.013275,0.025483,0.034943
-0.064546,0.035859,-0.10849,-0.10117,-0.014191,0.016632,0.018769,0.026093
-0.057832,0.022736,-0.095979,-0.10483,-0.0383,0.017853,0.023041,0.05539
-0.047761,0.038605,-0.093538,-0.10178,-0.033417,0.034333,0.031281,0.095674
-0.018463,-0.0019837,-0.049897,-0.081331,-0.030365,0.046235,0.022736,0.083772
-0.0035096,-0.024567,-0.040436,-0.071565,-0.0083925,0.033112,0.0068666,0.050507
0.015412,-0.042878,-0.012665,-0.065461,0.0099184,0.016022,0.0010681,0.045319
0.043793,-0.10819,0.02945,-0.040436,0.0099184,0.022431,0.012665,-0.0083925
0.027314,-0.11337,-0.019074,-0.047456,0.026093,0.13809,0.092317,-0.066072
0.02884,-0.1149,-0.014496,-0.059052,0.033417,0.15366,0.11093,-0.035859
0.013886,-0.11978,-0.023041,-0.052338,0.029755,0.084993,0.05539,-0.037385
0.027619,-0.095369,-0.044709,-0.058747,0.034333,0.036164,0.011139,-0.04654
0.02945,-0.074922,-0.05417,-0.062715,0.041047,-0.025483,-0.076753,-0.050507
0.0028992,-0.052338,-0.070954,-0.077058,0.059052,-0.48295,-0.34379,-0.053559
-0.031891,-0.013581,-0.086519,-0.082856,0.069429,-0.48692,-0.18784,-0.060578
-0.068208,0.0074769,-0.0972,-0.079194,0.010529,0.1268,0.095369,-0.027619
-0.08896,0.032502,-0.11856,-0.0972,-0.012055,0.13962,0.06363,0.0010681
-0.10727,0.044709,-0.095369,-0.097505,-0.027619,0.084993,0.037995,0.053864
-0.13199,0.027619,-0.056001,-0.077668,-0.035554,0.084993,0.035859,0.061799
-0.11368,0.027314,-0.09659,-0.084382,-0.024262,0.074617,0.045014,0.056611
-0.059968,0.036164,-0.084382,-0.09781,-0.01297,0.07126,0.062104,0.09781
-0.053864,0.0016785,-0.043183,-0.11093,-0.033722,0.093538,0.07187,0.12009
-0.049592,-0.027924,-0.039826,-0.087739,-0.027619,0.048676,0.0035096,0.092012
-0.0383,-0.06424,-0.013886,-0.057527,0.0013733,-0.00076295,0.009308,0.070039
0.036774,-0.099641,-0.005951,-0.047456,0.014801,0.0047303,0.051423,0.013275
0.027619,-0.11185,-0.028534,-0.040742,0.039216,0.048371,0.020905,-0.044404
-0.024872,-0.087434,-0.029145,-0.052949,0.048981,0.039521,0.034333,-0.039521
-0.031891,-0.093843,-0.014801,-0.078584,0.030976,0.024262,0.056306,-0.023346
-0.0041199,-0.13382,0.015412,-0.074617,0.009308,0.041352,0.058442,-0.014801
-0.0022889,-0.11887,-0.066682,-0.066682,0.021515,0.02945,0.012665,-0.055695
-0.033112,-0.030671,-0.091096,-0.068818,0.034333,-0.036164,-0.029145,-0.08011
-0.051728,0.035859,-0.095064,-0.098726,0.036774,-0.061799,-0.056916,-0.069123
-0.065461,0.052338,-0.088045,-0.09659,0.0038148,0.016632,-0.0090028,-0.014191
-0.084077,0.028229,-0.10269,-0.079194,-0.014496,0.011444,0.024262,0.085298
-0.092012,0.063935,-0.099641,-0.08957,-0.018769,-0.014191,0.02182,0.13901
-0.085298,0.042267,-0.090486,-0.096284,-0.010834,0.00015259,0.040436,0.18051
-0.077668,0.044099,-0.10849,-0.11765,-0.023651,0.044099,0.061189,0.1564
-0.023346,-0.0016785,-0.064851,-0.097505,-0.033112,0.075227,0.068208,0.11978
0.0047303,-0.056611,-0.022126,-0.070954,-0.031281,0.06363,0.021515,0.048066
0.025788,-0.078584,-0.026398,-0.056611,-0.00015259,0.027008,-0.0071717,-0.02121
0.04654,-0.11551,-0.020294,-0.050202,0.019379,0.0022889,-0.038911,-0.091707
0.065766,-0.12192,-0.0099184,-0.041657,0.023041,-0.011749,-0.040436,-0.12436
0.067597,-0.10422,-0.014801,-0.044709,0.040436,-0.025788,-0.043488,-0.087129
0.070649,-0.092927,-0.027924,-0.041352,0.058442,-0.017548,-0.030365,-0.095674
0.068208,-0.10178,-0.0383,-0.045014,0.050202,-0.018769,-0.016632,-0.090181
0.043183,-0.096284,-0.036164,-0.06424,0.050507,-0.014191,-0.027314,-0.073701
0.009308,-0.050813,-0.076448,-0.075532,0.047456,-0.0086976,-0.022126,-0.058747
-0.023346,-0.024872,-0.063935,-0.06424,0.031891,-0.012055,-0.0019837,-0.033112
-0.060883,0.014496,-0.08896,-0.072175,0.02121,-0.016938,0.0016785,0.013275
-0.087739,0.036469,-0.11093,-0.11765,0.018158,-0.014191,0.00076295,0.044404
-0.11612,0.054475,-0.10819,-0.11368,-0.0035096,-0.0022889,0.012055,0.050202
-0.10697,0.092012,-0.1033,-0.11551,-0.029755,0.020905,0.017548,0.063935
-0.09781,0.028534,-0.10269,-0.10849,-0.035248,0.013275,0.019989,0.090791
-0.074617,-0.0086976,-0.099641,-0.091402,-0.022126,0.01236,0.036164,0.087434
-0.059968,-0.02182,-0.042573,-0.074617,-0.018158,0.016327,0.023957,0.052033
0.046235,-0.03769,-0.025483,-0.067597,-0.0096132,0.019989,0.024262,0.035554
0.0096132,-0.068513,-0.01297,-0.087434,-0.0086976,0.034638,0.045319,0.00076295
-0.0096132,-0.0795,-0.0062562,-0.060273,-0.0047303,0.026398,0.052338,-0.015106
-0.011139,-0.097505,-0.011749,-0.041047,0.014801,0.041352,0.082856,0.0010681
-0.015106,-0.11246,-0.0068666,-0.036164,0.032197,0.045624,0.08072,-0.035248
-0.04715,-0.098116,-0.034943,-0.03769,0.036774,0.030365,-0.0013733,-0.075227
-0.02884,-0.088045,-0.021515,-0.063325,0.035554,-0.00076295,-0.064851,-0.05539
-0.028229,-0.08072,-0.029145,-0.05417,0.041962,-0.058137,-0.016938,-0.024262
-0.049287,-0.030365,-0.074311,-0.083467,0.044099,-0.031281,-0.023346,-0.0056458
-0.061799,-0.0086976,-0.090181,-0.10513,0.035554,-0.0028992,0.017853,0.012055
-0.059663,0.0077821,-0.084382,-0.094759,0.0080873,0.016938,0.039826,0.053559
-0.06363,0.041352,-0.10849,-0.10056,-0.015106,0.0090028,0.012665,0.090791
-0.08957,0.087129,-0.13474,-0.11765,-0.017548,0.0028992,0.009308,0.11368
-0.079194,0.031281,-0.092012,-0.1091,-0.026703,0.015106,0.027924,0.13596
-0.086824,0.016022,-0.065156,-0.097505,-0.043793,0.03006,0.033722,0.12192
-0.076143,0.011444,-0.073396,-0.09781,-0.028229,0.043183,0.031891,0.070039
-0.019379,-0.022736,-0.050202,-0.06363,-0.025483,0.040131,0.038911,0.060578
0.029145,-0.064546,-0.03006,-0.052949,0.0010681,0.015106,0.0065614,0.02182
0.02945,-0.074006,-0.022431,-0.051118,0.032197,-0.0099184,-0.025177,-0.037079
0.056611,-0.093843,-0.0053407,-0.043183,0.031891,-0.0019837,-0.018158,-0.066072
0.063935,-0.11551,-0.002594,-0.043488,0.028229,-0.0071717,-0.014191,-0.051423
0.05417,-0.12833,-0.0056458,-0.049287,0.044404,0.00045777,-0.018158,-0.045014
0.045319,-0.11032,-0.026703,-0.061494,0.050507,0.0090028,-0.016327,-0.051423
0.045014,-0.10178,-0.03006,-0.058442,0.037385,0.0041199,0.00045777,-0.062104
0.051118,-0.074311,-0.067903,-0.072175,0.032807,0.0080873,-0.014496,-0.055085
0.040131,-0.045319,-0.082246,-0.080415,0.02182,0.0083925,-0.015106,-0.055695
-0.016327,0.014191,-0.10513,-0.095064,0.019684,0.0050355,-0.002594,-0.056001
-0.078279,0.033112,-0.12161,-0.092317,0.0050355,0.015106,0.011749,-0.0062562
-0.12467,0.024567,-0.10147,-0.0972,-0.010834,0.0047303,0.020294,0.035859
-0.15244,0.056306,-0.10666,-0.1091,-0.0056458,-0.0032044,0.013581,0.063935
-0.15885,0.064546,-0.082551,-0.1091,-0.024262,0.002594,0.017853,0.098421
-0.12772,0.041962,-0.082246,-0.09659,-0.034638,0.0083925,0.015106,0.10269
-0.066072,0.013886,-0.058442,-0.082246,-0.027619,0.028229,0.023041,0.082551
-0.023346,-0.033417,-0.05417,-0.074922,-0.024262,0.028534,0.045319,0.064546
-0.0047303,-0.051423,-0.030976,-0.067597,-0.017548,0.020294,0.032197,0.044404
0.023957,-0.10605,-0.012055,-0.048676,0.0035096,0.019989,0.012055,0.040436
0.042878,-0.12375,-0.00045777,-0.041657,0.024262,0.0099184,0.0056458,0.019379
0.052338,-0.12375,-0.0086976,-0.036164,0.037079,0.0044251,-0.011444,-0.065156
0.049592,-0.11368,-0.0206,-0.059052,0.048371,-0.0016785,-0.0032044,-0.081025
0.041657,-0.086519,-0.026093,-0.057527,0.057527,-0.0035096,-0.016327,-0.077668
0.038911,-0.078889,-0.039826,-0.041047,0.055085,0.0019837,-0.013275,-0.046845
-0.019074,-0.03769,-0.062715,-0.084993,0.041047,-0.0074769,-0.024872,-0.062715
-0.06302,-0.012665,-0.08011,-0.091402,0.018158,-0.010224,-0.020905,-0.093233
-0.089876,0.016327,-0.092622,-0.082551,-0.011444,0.0010681,-0.0019837,-0.053254
-0.11765,0.05417,-0.11704,-0.098421,-0.010224,-0.0038148,-0.00015259,0.035248
-0.1387,0.066072,-0.095979,-0.11124,-0.010834,-0.0056458,0.018158,0.078279
-0.14023,0.067292,-0.1088,-0.10575,-0.027314,0.0083925,0.041047,0.099031
-0.11521,0.044404,-0.092927,-0.096284,-0.03769,0.0206,0.045624,0.13626
-0.097505,0.020294,-0.08072,-0.08835,-0.032502,0.030976,0.039826,0.12711
-0.044404,-0.026398,-0.026703,-0.053254,-0.016938,0.036469,0.047761,0.096895
-0.011444,-0.062104,0.0038148,-0.084688,0.0068666,0.04654,0.057527,0.052949
0.010529,-0.083772,-0.039216,-0.065156,0.019989,0.039216,0.030365,0.017853
0.024262,-0.092012,-0.018463,-0.066682,0.023651,0.034333,0.0080873,-0.012665
0.037385,-0.10819,-0.020905,-0.044404,0.022736,0.037079,-0.0080873,-0.037079
0.063325,-0.121,-0.0083925,-0.046235,0.033722,0.010834,-0.022736,-0.044709
0.075837,-0.1384,-0.030976,-0.044099,0.059663,-0.0972,-0.041657,-0.0383
0.049592,-0.1088,-0.039826,-0.057527,0.061189,-0.019989,-0.032807,-0.0383
0.029145,-0.081636,-0.049287,-0.06424,0.036774,0.027008,-0.0041199,-0.051423
0.013886,-0.050813,-0.057221,-0.064851,0.031891,-0.0038148,-0.002594,-0.03769
-0.0041199,-0.016938,-0.10086,-0.085298,0.019989,-0.0047303,-0.0032044,-0.0062562
-0.033417,0.0083925,-0.10483,-0.08072,0.0086976,-0.0041199,0.010529,-0.0041199
-0.065766,0.04593,-0.10452,-0.10971,-0.0090028,-0.012665,-0.0074769,-0.0071717
-0.098116,0.069734,-0.11215,-0.11917,-0.022126,-0.005951,-0.0022889,0.016632
-0.11734,0.062104,-0.098726,-0.1149,-0.032197,0.011139,0.012055,0.041962
-0.10819,0.048676,-0.090181,-0.10636,-0.038605,0.018158,0.022736,0.069734
-0.089876,0.021515,-0.081331,-0.083772,-0.042573,0.03006,0.032807,0.073396
-0.045624,-0.022126,-0.051118,-0.066682,-0.02884,0.022126,0.015106,0.047761
-0.018463,-0.060883,-0.030976,-0.056306,-0.0032044,0.018769,0.0056458,0.03006
0.009308,-0.088655,0.0071717,-0.053254,0.018769,0.011139,-0.0010681,0.009308
0.034028,-0.095674,-0.018769,-0.050202,0.027619,0.011139,-0.0044251,-0.0068666
0.034028,-0.10666,-0.026093,-0.041352,0.041047,0.0080873,-0.0062562,-0.020294
0.053254,-0.12284,0.011444,-0.056611,0.055695,0.01236,0.00045777,-0.026703
0.02182,-0.14664,0.0013733,-0.062409,0.0383,0.014496,0.03006,-0.032807
0.0038148,-0.1088,-0.025788,-0.05478,0.034943,0.013275,0.030365,-0.031586
-0.023346,-0.039826,-0.077363,-0.065156,0.051423,-0.0010681,0.02884,-0.0083925
-0.054475,-0.0080873,-0.09659,-0.099336,0.032807,-0.00076295,0.034333,-0.010834
-0.082856,0.035248,-0.1033,-0.1091,0.0056458,0.0206,0.041352,-0.019379
-0.091707,0.04593,-0.11521,-0.10086,-0.014801,0.016022,0.023651,0.01297
-0.052033,0.042573,-0.11063,-0.095674,-0.023651,0.030365,0.041657,0.078584
-0.047761,0.039826,-0.1091,-0.103,-0.024262,0.032502,0.033112,0.11765
-0.056611,0.024567,-0.10605,-0.099641,-0.027314,0.018463,-0.00076295,0.11002
-0.065461,0.023651,-0.085298,-0.091096,-0.028534,0.0080873,-0.013275,0.077363
-0.065461,0.014191,-0.060883,-0.087129,-0.022126,-0.0047303,-0.017548,0.041657
-0.050813,-0.019379,-0.026703,-0.07126,-0.0041199,0.0086976,-0.012055,0.02182
-0.040742,-0.086519,0.02945,-0.051423,0.005951,0.022431,-0.011139,-0.014496
0.0035096,-0.10391,-0.027924,-0.045014,0.013886,0.015412,-0.0080873,-0.013581
0.045014,-0.121,0.017853,-0.034638,0.033417,0.0044251,-0.0041199,-0.012665
0.059358,-0.12619,-0.013886,-0.046845,0.036164,0.002594,0.015412,-0.02884
0.037385,-0.092317,-0.035554,-0.061494,0.040436,-0.0032044,0.0010681,-0.047456
0.025483,-0.11673,-0.0062562,-0.051728,0.037079,-0.0013733,0.0038148,-0.086824
0.019989,-0.11276,-0.026703,-0.046845,0.049897,-0.0086976,-0.016632,-0.084077
0.0053407,-0.05478,-0.091402,-0.072175,0.057221,-0.0056458,-0.013275,-0.0383
-0.022736,-0.01297,-0.10025,-0.094453,0.027924,0.0041199,0.015717,-0.0065614
-0.045624,-0.0028992,-0.047761,-0.058747,0.024262,-0.012055,0.0068666,-0.019684
-0.085298,0.070344,-0.13291,-0.10147,0.01297,-0.016938,-0.011444,-0.020294
-0.095979,0.091707,-0.14054,-0.1384,-0.014191,-0.0068666,0.0071717,-0.011139
-0.10117,0.061799,-0.10269,-0.13107,-0.044709,0.026398,0.035554,0.029145
-0.10819,0.067903,-0.096895,-0.11704,-0.05478,0.040131,0.048981,0.091402
-0.12436,0.031281,-0.073396,-0.091402,-0.041352,0.049287,0.048066,0.12192
-0.073701,-0.037995,-0.048066,-0.093233,-0.036469,0.045014,0.043488,0.12222
-0.035554,-0.066072,-0.030976,-0.073091,-0.01297,0.020294,0.020294,0.069123
0.0096132,-0.086213,-0.022736,-0.05539,0.0038148,0.0028992,0.0090028,0.023957
0.051118,-0.11551,-0.0099184,-0.037385,0.0068666,0.010834,0.011139,0.00045777
0.059052,-0.11032,-0.011749,-0.026093,0.035248,0.019074,0.017548,-0.016632
0.067903,-0.10788,-0.0065614,-0.051728,0.059663,0.0032044,0.0016785,-0.051423
0.052338,-0.091707,-0.015717,-0.066987,0.049897,-0.0086976,-0.016632,-0.068818
0.035859,-0.090181,-0.026703,-0.050507,0.045014,-0.010224,-0.017243,-0.073091
-0.0074769,-0.085908,-0.04593,-0.065461,0.038911,-0.02121,-0.020905,-0.059358
-0.033112,-0.047761,-0.054475,-0.068818,0.025177,-0.009308,-0.025788,-0.031891
-0.033417,-0.011444,-0.08835,-0.086519,0.0065614,0.0068666,-0.021515,0.00076295
-0.076753,0.0019837,-0.094453,-0.094453,0.0019837,-0.0050355,-0.016938,-0.0083925
-0.08896,0.033722,-0.121,-0.10147,-0.0041199,-0.012055,-0.0096132,0.00076295
-0.10575,0.041657,-0.11215,-0.12192,-0.0086976,-0.010224,0.0013733,0.036774
-0.091096,0.042573,-0.10666,-0.10269,-0.024567,0.002594,0.0038148,0.093538
-0.081331,0.035554,-0.10086,-0.084688,-0.033112,0.0099184,0.040131,0.099641
-0.076753,0.03006,-0.082551,-0.090486,-0.016632,0.085298,0.10422,0.084382
-0.05539,0.0080873,-0.048371,-0.083467,-0.029755,0.13718,0.22202,0.13718
-0.042573,-0.026093,-0.024567,-0.081331,-0.02945,0.08896,0.17685,0.11276
-0.025483,-0.083772,-0.018463,-0.045624,-0.017243,0.14359,0.14725,0.044404
0.016632,-0.13565,0.015412,-0.037079,-0.00076295,0.23056,0.12619,-0.014496
0.011139,-0.12497,0.0062562,-0.08072,0.061799,0.071565,-0.31449,-0.073091
0.013275,-0.11582,0.016327,-0.051728,0.099336,-0.74998,-0.5452,-0.061799
0.022736,-0.086824,-0.018463,-0.032197,0.044404,-0.28489,-0.057221,-0.039521
0.020905,-0.08011,-0.049287,-0.05478,0.047456,0.099336,0.045014,-0.076753
0.013275,-0.058442,-0.06302,-0.066682,0.046845,0.0083925,0.020294,-0.10086
0.058442,-0.035859,-0.086824,-0.065461,0.013581,0.10056,0.072786,-0.071565
0.0096132,-0.014801,-0.10513,-0.084382,0.0068666,0.05539,0.061189,-0.035859
-0.041962,0.010224,-0.10636,-0.1149,-0.0041199,0.036164,0.042267,0.0013733
-0.074617,0.039826,-0.10361,-0.096895,-0.032197,0.028229,0.035248,0.030976
-0.0972,0.04593,-0.10758,-0.0972,-0.019684,0.015412,0.026093,0.066377
-0.11337,0.02945,-0.092317,-0.096895,-0.015106,0.021515,0.034333,0.082246
-0.10941,0.01236,-0.092927,-0.11032,-0.018463,0.024567,0.026093,0.089876
-0.066072,-0.0053407,-0.05478,-0.097505,-0.023041,0.034943,0.01297,0.0795
-0.032807,-0.02945,-0.056306,-0.081025,-0.018463,0.04715,0.0028992,0.067292
-0.011139,-0.057832,-0.041962,-0.07248,-0.012055,0.061189,0.010529,0.067597
0.014801,-0.076753,-0.010529,-0.073396,0.0041199,0.018158,0.002594,0.055085
0.04654,-0.12161,0.030671,-0.028534,0.0206,0.0013733,-0.010834,0.011749
0.036774,-0.10086,0.0074769,-0.0068666,0.040131,0.01297,-0.0062562,-0.02945
0.023957,-0.02884,-0.042267,-0.078584,0.06302,-0.0028992,0.023957,-0.053864
0.025483,-0.052644,-0.060578,-0.069429,0.039826,0.025483,0.032197,-0.040742
0.030365,-0.093538,-0.063325,-0.057221,0.024262,0.024872,0.02945,-0.052949
0.015412,-0.08011,-0.052949,-0.071565,0.033722,0.0044251,0.014801,-0.082246
-0.012055,-0.05417,-0.058442,-0.081331,0.02945,0.0044251,0.0035096,-0.070039
-0.058137,-0.023957,-0.07126,-0.097505,0.017243,0.0053407,0.0041199,-0.050507
-0.073701,-0.0068666,-0.078889,-0.10513,-0.0010681,0.0041199,0.0086976,-0.016938
-0.090791,0.022736,-0.073396,-0.089876,-0.013581,-0.0056458,0.019074,0.027314
-0.073701,0.029755,-0.082856,-0.088655,-0.019684,0.002594,0.019074,0.065156
-0.089265,0.031891,-0.12497,-0.099031,-0.022126,0.0044251,0.027924,0.06302
-0.063325,0.031281,-0.10208,-0.10117,-0.022126,0.016327,0.045014,0.068208
-0.048371,0.00045777,-0.064851,-0.085603,-0.027619,0.027924,0.034028,0.063325
-0.060578,0.0041199,-0.062715,-0.07126,-0.016632,0.019074,0.0096132,0.041352
-0.041352,-0.031891,-0.028534,-0.06424,0.0010681,0.015106,0.023957,0.067903
-0.0206,-0.088655,-0.0047303,-0.062715,0.019379,0.023346,0.009308,0.066377
-0.018463,-0.10147,-0.023041,-0.058442,0.025177,0.015412,-0.01297,0.013581
-0.0019837,-0.10178,-0.019074,-0.052338,0.0383,0.005951,-0.0083925,-0.02121
0.0071717,-0.090181,-0.016632,-0.053254,0.045319,-0.0071717,-0.0074769,-0.029145
0.0053407,-0.095979,-0.012665,-0.059663,0.046235,-0.0035096,-0.0035096,-0.052644
0.02121,-0.074006,-0.034333,-0.0383,0.033722,-0.0038148,0.0013733,-0.06302
0.020294,-0.059968,-0.063325,-0.058747,0.02945,-0.009308,0.0041199,-0.050813
-0.02121,-0.016022,-0.085908,-0.11093,0.026703,0.0028992,0.013581,-0.030365
-0.06302,0.016632,-0.082551,-0.11154,0.016632,-0.005951,0.0099184,-0.014191
-0.069429,0.0010681,-0.10697,-0.078584,-0.0035096,-0.0038148,0.0056458,0.015717
-0.078889,0.031586,-0.12924,-0.10361,0.0047303,-0.014801,-0.0019837,0.040436
-0.071565,0.033722,-0.11246,-0.10788,-0.015106,-0.00076295,0.024872,0.056611
-0.081636,0.034028,-0.090486,-0.10056,-0.044404,0.025483,0.027008,0.08835
-0.07187,0.028229,-0.075837,-0.10513,-0.034943,0.036469,0.029755,0.084688
-0.043488,-0.023346,-0.043183,-0.082246,-0.029145,0.030671,0.031891,0.077668
-0.010834,-0.069734,0.00015259,-0.06302,-0.015106,0.028534,0.019074,0.067903
0.077668,-0.09659,-0.010224,-0.030671,-0.0022889,0.034028,0.022126,0.031281
0.10086,-0.1265,0.0047303,-0.021515,0.034028,0.011444,0.013275,-0.00045777
0.062104,-0.11063,-0.012665,-0.041352,0.027008,0.00076295,-0.0083925,-0.043488
0.024872,-0.074922,-0.031891,-0.06363,0.027314,-0.0032044,-0.014496,-0.069734
0.011139,-0.11948,-0.026093,-0.05417,0.05417,-0.019074,-0.01297,-0.055695
-0.014191,-0.078889,-0.038911,-0.061799,0.050202,-0.0077821,-0.010224,-0.029145
-0.044709,-0.034638,-0.056611,-0.082246,0.029145,0.0041199,-0.00045777,-0.020905
-0.060578,-0.023346,-0.08072,-0.079194,0.023346,-0.0038148,0.0096132,-0.047456
-0.090181,0.014191,-0.091096,-0.091096,0.011139,-0.0016785,0.0090028,-0.033722
-0.12253,0.038605,-0.10697,-0.1088,-0.0083925,-0.010224,-0.0041199,-0.019379
-0.11704,0.054475,-0.10849,-0.11154,-0.028229,0.010834,0.015106,0.048371
-0.095979,0.056611,-0.12436,-0.10056,-0.034943,0.033417,0.041352,0.075227
-0.07126,0.048676,-0.1033,-0.12161,-0.031586,0.019379,0.018158,0.045014
-0.056001,0.027619,-0.0795,-0.10147,-0.029755,0.024872,0.018769,0.0383
-0.031891,-0.018158,-0.060578,-0.090791,-0.030976,0.029145,0.03769,0.033417
-0.013581,-0.046235,-0.043793,-0.079805,-0.015412,0.030365,0.029755,0.033417
0.009308,-0.069734,-0.022736,-0.081025,0.0019837,0.031281,0.01297,0.048066
0.041352,-0.095674,0.0013733,-0.040131,0.0010681,0.016938,-0.00045777,-0.0010681
0.033722,-0.10788,0.0038148,-0.056306,0.030365,-0.0086976,-0.0080873,-0.037079
0.033112,-0.1088,0.0016785,-0.053559,0.058137,-0.017853,-0.00076295,-0.049897
0.012665,-0.10636,-0.02182,-0.058442,0.049592,-0.010224,-0.00045777,-0.052033
0.025788,-0.10422,-0.024262,-0.048981,0.047761,0.0022889,0.010834,-0.024872
-0.0019837,-0.074006,-0.043183,-0.064851,0.049897,0.0038148,0.022126,0.013886
-0.018158,-0.060578,-0.063935,-0.068208,0.042878,0.0010681,0.0090028,0.056001
-0.038605,-0.036469,-0.084993,-0.07126,0.023041,0.0068666,0.017548,0.048981
-0.072175,0.0053407,-0.099336,-0.087739,0.011139,0.00076295,0.005951,0.034028
-0.077058,0.033112,-0.11307,-0.099947,-0.0032044,0.0053407,0.0032044,0.023651
-0.084382,0.040742,-0.11337,-0.094759,-0.0206,0.018769,0.015106,0.032807
-0.08835,0.067597,-0.12222,-0.10452,-0.020905,0.017853,0.023957,0.045014
-0.079805,0.059663,-0.081941,-0.10697,-0.032502,0.016022,0.034943,0.034943
-0.074006,0.00015259,-0.044099,-0.088655,-0.045014,0.018769,0.0096132,0.0032044
-0.022736,-0.052949,-0.058442,-0.068818,-0.027619,0.013275,-0.0028992,0.010529
0.014191,-0.057832,-0.035859,-0.058747,0.0035096,0.0038148,-0.0010681,0.017243
0.061494,-0.096284,0.00045777,-0.05417,0.015412,0.0032044,-0.0071717,0.014191
0.085603,-0.12589,-0.0047303,-0.060578,0.0206,0.016938,-0.0062562,-0.0056458
0.04715,-0.093538,-0.016632,-0.053559,0.034333,0.0032044,-0.0050355,-0.031586
-0.0047303,-0.060883,-0.013886,-0.033417,0.037995,-0.0013733,-0.00045777,-0.051423
-0.041352,-0.073701,-0.027008,-0.050202,0.049897,-0.0010681,-0.01297,-0.063325
-0.048371,-0.0795,-0.021515,-0.04715,0.059968,0.0032044,-0.017243,-0.064851
-0.040436,-0.064851,-0.050813,-0.04715,0.044404,0.016938,0.019379,-0.034638
-0.050813,-0.031586,-0.087434,-0.091707,0.015412,0.016632,0.040131,-0.015412
-0.059052,0.0047303,-0.099031,-0.10636,0.011444,0.0053407,0.025483,0.0071717
-0.083467,0.015717,-0.10208,-0.11643,0.0050355,0.012665,0.012055,0.031586
-0.0795,0.037079,-0.10849,-0.099336,-0.010834,0.019989,0.002594,0.094759
-0.060883,0.02945,-0.103,-0.092622,-0.025177,-0.014801,-0.0086976,0.11765
-0.068208,0.023957,-0.07248,-0.0972,-0.018463,-0.083772,-0.038911,0.031281
-0.077363,0.027314,-0.084688,-0.10666,-0.028534,0.024567,0.034028,0.011444
-0.06302,0.0099184,-0.0795,-0.10697,-0.030671,0.047456,0.062409,0.06424
-0.023041,-0.042267,-0.056611,-0.065766,-0.041657,0.067292,0.061494,0.09659
-0.028534,-0.058442,-0.034333,-0.048676,-0.014801,0.055085,0.05417,0.067597
-0.017243,-0.056611,-0.036469,-0.049287,0.023346,0.011139,0.0047303,0.043793
0.036774,-0.10056,0.0013733,-0.046845,0.028229,0.0206,0.014191,0.031281
0.039521,-0.12284,-0.0086976,-0.058442,0.040131,0.0065614,-0.0032044,-0.025483
0.03006,-0.11612,-0.01236,-0.062715,0.04715,-0.019684,-0.02945,-0.073091
0.023957,-0.096284,-0.023041,-0.058137,0.03769,-0.013275,-0.030365,-0.076753
-0.0010681,-0.070649,-0.031586,-0.06424,0.047456,-0.011444,-0.0053407,-0.055695
-0.033112,-0.042878,-0.062409,-0.078584,0.043488,-0.017243,0.0038148,-0.027008
-0.039826,-0.022431,-0.072786,-0.086519,0.037385,-0.0013733,0.0050355,0.0016785
-0.048981,0.0080873,-0.10636,-0.11521,0.017548,0.0065614,0.017548,0.02884
-0.048371,0.042573,-0.12039,-0.10117,-0.0047303,0.017853,0.029755,0.024262
-0.069734,0.043793,-0.1326,-0.094453,-0.017243,0.019074,0.026703,0.011139
-0.070039,0.045624,-0.086213,-0.087434,-0.035554,0.051728,0.041352,0.00076295
-0.066987,-0.012665,-0.04715,-0.068818,-0.048981,0.19089,0.11246,0.019379
-0.065766,-0.035554,-0.081331,-0.10147,-0.024872,0.15427,0.08957,0.026703
-0.033722,-0.014801,-0.046235,-0.068513,-0.011139,0.084382,0.0065614,0.064546
-0.0050355,-0.030976,-0.04715,-0.067597,-0.015106,0.048371,-0.049897,0.060578
-0.0062562,-0.056611,-0.022126,-0.067292,0.010529,-0.10056,-0.12955,0.0206
0.0047303,-0.081941,-0.0077821,-0.065156,0.042878,-0.59861,-0.093843,0.017548
0.011444,-0.10636,-0.0080873,-0.052338,0.049287,-0.30991,0.024262,-0.01236
0.025788,-0.09659,-0.026398,-0.056611,0.023346,0.21347,0.10025,-0.056611
0.027314,-0.091707,-0.019684,-0.059358,0.036164,0.12131,0.077668,-0.074006
0.019989,-0.090791,-0.024262,-0.05539,0.026093,0.099947,0.076143,-0.073396
0.018769,-0.095369,-0.036774,-0.068513,0.031281,0.10178,0.01297,-0.03769
-0.0047303,-0.068513,-0.059052,-0.066987,0.030976,0.048371,-0.032807,-0.01297
-0.019379,-0.027619,-0.097505,-0.085603,0.022736,0.0028992,0.051423,0.018158
0.022736,0.019684,-0.10513,-0.085908,0.0010681,0.017243,0.019379,0.0038148
-0.059358,0.018158,-0.11978,-0.091402,-0.009308,-0.0010681,-0.16281,-0.0028992
-0.096895,0.036164,-0.097505,-0.083467,-0.0019837,-0.02182,-0.16312,0.060578
-0.13382,0.042267,-0.086824,-0.066987,0.0013733,0.00045777,0.059968,0.066682
-0.12558,0.088045,-0.084382,-0.092317,-0.014191,0.030365,0.05417,0.037385
-0.14939,0.066072,-0.060883,-0.11154,-0.013581,0.024567,0.0096132,0.029145
-0.074006,-0.019379,-0.044099,-0.071565,-0.022126,0.0083925,0.018158,0.024872
-0.023041,-0.038605,-0.064851,-0.076448,-0.017548,0.015412,0.023651,0.019989
-0.019684,-0.052033,-0.028229,-0.070649,0.0056458,0.0086976,0.025788,0.035859
-0.010529,-0.074311,-0.010224,-0.066987,0.005951,0.020294,0.048371,0.041657
0.010834,-0.11856,-0.013581,-0.058137,0.012055,0.048371,0.075227,0.049287
0.037995,-0.12222,0.013275,-0.049592,0.027924,0.052338,0.081636,0.048371
0.027924,-0.11582,0.0019837,-0.03006,0.040131,0.035248,0.056611,0.036164
0.026703,-0.10849,-0.022431,-0.043183,0.052338,0.0099184,0.031281,0.017243
0.0071717,-0.067903,-0.07248,-0.082551,0.05417,-0.0099184,0.02121,0.018158
-0.023346,-0.042267,-0.078889,-0.099336,0.030365,0.009308,0.026703,-0.01297
-0.041352,-0.026398,-0.092927,-0.077668,-0.0047303,0.029145,0.032807,0.0047303
-0.053864,0.0074769,-0.10971,-0.096895,-0.0086976,0.014191,0.027008,0.011749
-0.069429,0.070039,-0.10422,-0.10697,-0.0010681,0.010834,0.037995,0.016938
-0.070954,0.040742,-0.095979,-0.085603,-0.022126,0.024262,0.02884,0.025483
-0.08072,0.028534,-0.10605,-0.083772,-0.025788,0.021515,0.012055,-0.0053407
-0.070039,0.041657,-0.10971,-0.1033,-0.025177,0.005951,-0.0032044,-0.0019837
-0.015412,-0.01297,-0.037995,-0.075837,-0.017548,-0.011444,-0.016327,0.014191
0.022736,-0.040436,-0.044709,-0.071565,-0.0013733,-0.021515,-0.010834,-0.0022889
0.0035096,-0.042878,-0.048066,-0.074617,0.019684,-0.017243,-0.0206,-0.014801
0.012665,-0.084688,-0.024262,-0.064851,0.0080873,0.0013733,-0.020294,-0.0019837
0.047456,-0.11673,-0.010224,-0.051423,0.018158,0.0099184,-0.0096132,-0.0041199
0.053559,-0.13016,0.017243,-0.035554,0.035859,0.0086976,-0.015717,-0.027008
0.014801,-0.11795,-0.0096132,-0.055695,0.052033,-0.0074769,-0.021515,-0.060883
-0.0032044,-0.092317,-0.033112,-0.066682,0.05417,-0.017853,-0.023346,-0.065461
-0.0065614,-0.092927,-0.033112,-0.061799,0.038911,-0.0035096,-0.01236,-0.05539
-0.023041,-0.056916,-0.051118,-0.066987,0.03769,0.0080873,0.00045777,-0.04654
-0.028534,-0.036774,-0.064546,-0.078584,0.030365,-0.0016785,0.0038148,-0.02945
-0.049897,-0.0062562,-0.10239,-0.089876,0.019379,-0.010224,-0.011444,-0.0047303
-0.068208,0.034333,-0.11765,-0.096284,0.0013733,-0.005951,-0.0053407,0.016022
-0.081025,0.049287,-0.11063,-0.098421,-0.0032044,0.01236,0.0016785,0.032807
-0.086824,0.049592,-0.10086,-0.10452,-0.014191,0.0086976,0.0035096,0.065461
-0.077363,0.042573,-0.092317,-0.10239,-0.02884,-0.009308,0.018158,0.097505
-0.075227,0.033417,-0.092622,-0.10239,-0.026703,-0.049287,0.026703,0.11551
-0.068818,0.017548,-0.062409,-0.083467,-0.026398,-0.017853,0.019379,0.10147
-0.034638,-0.019684,-0.039826,-0.079194,-0.024262,0.036469,0.025483,0.067903
-0.034333,-0.04654,-0.034333,-0.066377,-0.017548,0.1854,0.045014,0.043183
-0.01236,-0.097505,-0.0013733,-0.058747,0.0032044,0.24582,0.013886,0.017853
0.011749,-0.12436,0.009308,-0.047456,0.043183,-0.11185,-0.035248,-0.017243
0.02182,-0.10544,0.00015259,-0.033722,0.055085,-0.11154,0.033112,-0.029145
0.013886,-0.096895,0.016632,-0.030365,0.039826,0.009308,0.052338,-0.039216
0.00045777,-0.061799,-0.036469,-0.075227,0.043488,-0.0068666,0.042267,-0.023346
0.002594,-0.065766,-0.048981,-0.095674,0.039521,0.005951,0.049592,-0.015106
-0.0062562,-0.045319,-0.064546,-0.074922,0.02182,0.02884,0.052949,-0.0065614
-0.022126,-0.032197,-0.078584,-0.080415,-0.0019837,0.042878,0.044404,-0.020905
-0.043793,-0.014191,-0.10147,-0.08896,0.0013733,-0.0016785,0.002594,-0.0065614
-0.050813,0.024567,-0.1149,-0.094759,0.0090028,-0.017548,-0.0083925,0.067597
-0.03769,0.033112,-0.11521,-0.076753,-0.0062562,0.020905,0.017548,0.059052
-0.066682,0.058747,-0.11093,-0.10117,-0.012055,0.026703,0.033417,0.047456
-0.074006,0.051118,-0.097505,-0.11032,-0.011444,0.015106,0.023957,0.049897
-0.076143,0.019684,-0.064546,-0.08835,-0.029145,0.014801,0.012665,0.07126
-0.058137,-0.034028,-0.057221,-0.065156,-0.02121,0.013886,-0.027008,0.075837
-0.033722,-0.074311,-0.036164,-0.062715,-0.0053407,-0.020905,-0.02945,0.032197
-0.017243,-0.087434,-0.037079,-0.073091,0.012665,-0.080415,-0.028534,-0.011139
-0.002594,-0.077668,-0.011749,-0.063325,0.025788,0.023957,0.016632,-0.00045777
0.005951,-0.076143,-0.01236,-0.052644,0.031586,0.06363,0.055695,-0.017243
0.031891,-0.14267,0.03006,-0.042267,0.036774,0.049592,0.0383,-0.074006
0.052033,-0.16007,-0.0096132,-0.041047,0.03006,0.036774,-0.002594,-0.10544
0.045319,-0.10575,-0.040436,-0.048981,0.039216,0.0068666,-0.017243,-0.10452
0.02121,-0.066987,-0.062409,-0.082551,0.048371,-0.010224,-0.011139,-0.095674
0.0090028,-0.02884,-0.065766,-0.077058,0.025483,-0.010224,-0.014191,-0.074006
0.0019837,-0.0028992,-0.084077,-0.10056,0.016632,-0.0056458,-0.025177,-0.010834
-0.020905,0.018158,-0.10727,-0.084993,0.005951,0.0022889,-0.019684,0.034028
-0.064851,0.033112,-0.11032,-0.096284,-0.0010681,0.0053407,-0.0056458,0.051118
-0.081941,0.051423,-0.10758,-0.096895,-0.019684,-0.0056458,-0.0056458,0.089876
-0.086213,0.053254,-0.10758,-0.08835,-0.026703,0.009308,0.013886,0.081331
-0.081636,0.022736,-0.090486,-0.10513,-0.0206,0.018769,0.020294,0.08011
-0.094453,0.016632,-0.070344,-0.10239,-0.015106,0.019074,0.033417,0.079194
-0.10056,0.0080873,-0.047761,-0.085603,-0.012665,0.01297,0.014801,0.074006
-0.075227,-0.033722,-0.02884,-0.073701,-0.0047303,0.013275,0.02182,0.061189
-0.042573,-0.072786,-0.010834,-0.074311,0.0080873,0.024567,0.047761,0.060273
-0.0096132,-0.10239,-0.00076295,-0.049287,0.016632,0.031586,0.049287,0.038911
0.00076295,-0.10544,-0.0099184,-0.0383,0.019379,0.041352,0.056611,0.017243
0.011139,-0.096895,-0.020905,-0.053254,0.026703,0.044099,0.06302,-0.0086976
0.027314,-0.12406,-0.0077821,-0.05539,0.031891,0.042573,0.04715,-0.014191
0.056306,-0.14298,0.024262,-0.034943,0.040436,0.021515,0.02121,-0.018769
0.042878,-0.079805,-0.062409,-0.028534,0.048981,-0.014191,-0.02121,-0.051423
-0.00015259,-0.010529,-0.11368,-0.068818,0.067903,-0.03769,-0.055695,-0.095979
-0.024567,0.015106,-0.12284,-0.087434,0.049592,-0.023346,-0.031586,-0.031891
-0.039826,0.047456,-0.11154,-0.10941,0.0077821,0.002594,-0.0090028,0.0080873
-0.035248,0.057221,-0.12039,-0.11063,-0.013581,-0.0077821,-0.014191,0.0090028
-0.069734,0.069123,-0.1146,-0.10971,-0.032807,0.0028992,0.0032044,0.025788
-0.10971,0.040436,-0.082551,-0.10086,-0.037079,0.019074,0.02121,0.06363
-0.12345,0.013581,-0.060578,-0.083467,-0.030365,0.0206,0.039826,0.09781
-0.093233,-0.027314,-0.024262,-0.061189,-0.0074769,0.0013733,0.010834,0.079805
-0.10422,-0.0096132,-0.068513,-0.083162,0.011749,-0.0041199,0.005951,0.049287
-0.063325,-0.031891,-0.044404,-0.081636,-0.0019837,0.024262,0.033112,0.013886
-0.010224,-0.081636,-0.012055,-0.062715,-0.010834,0.034943,0.041352,0.0038148
0.059052,-0.11246,-0.015412,-0.039521,0.012665,0.040436,-0.0047303,-0.027619
0.06363,-0.11734,-0.010224,-0.059358,0.03006,0.027314,-0.027314,-0.045624
0.055085,-0.11154,-0.0206,-0.050813,0.039216,-0.0028992,-0.019684,-0.058137
0.041962,-0.10697,-0.017853,-0.04715,0.036164,-0.017853,-0.016632,-0.076143
0.041352,-0.10452,-0.041047,-0.048676,0.027924,-0.016327,-0.0013733,-0.048676
0.015412,-0.050507,-0.061189,-0.061799,0.034333,-0.013886,0.00076295,-0.020294
-0.030671,-0.02884,-0.081331,-0.081636,0.030365,-0.0086976,0.0071717,-0.0053407
-0.033417,0.002594,-0.10117,-0.097505,0.010529,0.010529,0.018158,0.002594
-0.074006,0.042267,-0.10269,-0.11276,-0.0047303,0.018769,0.02945,0.013581
-0.08835,0.051728,-0.11215,-0.1088,-0.013581,0.030976,0.043793,0.065156
-0.081331,0.037079,-0.10422,-0.12039,-0.019379,0.029145,0.051423,0.092927
-0.075837,0.034028,-0.081025,-0.096895,-0.024872,0.01297,0.053864,0.096895
-0.059052,0.013886,-0.072786,-0.087129,-0.018463,0.016022,0.061799,0.098421
-0.043183,-0.018158,-0.058442,-0.079194,-0.011444,0.016938,0.039521,0.059663
-0.020905,-0.030976,-0.0383,-0.066987,-0.0032044,0.01297,0.019989,0.0056458
0.02121,-0.078279,-0.01236,-0.060273,0.013275,0.0086976,-0.002594,-0.010834
0.044099,-0.1088,-0.0056458,-0.050202,0.017243,0.0050355,-0.015717,-0.02121
0.041962,-0.11643,-0.0080873,-0.047456,0.02945,0.0071717,0.0010681,-0.022431
0.060578,-0.10056,-0.023957,-0.044099,0.041352,-0.0028992,-0.0032044,-0.019684
0.06302,-0.099641,-0.020905,-0.047456,0.044099,-0.0010681,-0.015412,-0.054475
0.051118,-0.099336,-0.030671,-0.055085,0.033112,0.014191,-0.022431,-0.083772
0.011749,-0.078584,-0.048371,-0.068208,0.027314,0.005951,-0.014496,-0.075227
-0.018463,-0.042573,-0.067903,-0.084382,0.023957,0.00045777,-0.0074769,-0.067903
-0.081025,-0.0022889,-0.08835,-0.082551,0.021515,-0.0013733,-0.014496,-0.050507
-0.12985,0.009308,-0.076143,-0.074311,0.019989,0.0083925,-0.0010681,-0.040742
-0.14206,0.037385,-0.08896,-0.088655,0.015412,-0.0047303,-0.0032044,-0.011444
-0.14633,0.084077,-0.11612,-0.10513,0.014801,-0.016022,-0.019379,0.013886
-0.067903,0.056001,-0.10727,-0.10666,-0.010529,-0.0013733,-0.0010681,0.074006
-0.10727,0.037079,-0.094148,-0.10056,-0.025483,0.014191,0.053559,0.15244
-0.12741,0.010529,-0.06424,-0.082551,-0.030365,0.024567,0.076448,0.19242
-0.091402,-0.038605,-0.050813,-0.10697,-0.033417,0.041352,0.095674,0.21378
-0.056916,-0.073701,-0.036469,-0.079805,-0.023651,0.041352,0.10971,0.18631
-0.057832,-0.096284,0.005951,-0.06363,-0.0086976,0.034333,-0.021515,0.10269
0.009308,-0.10269,-0.0035096,-0.056916,0.023957,-0.013275,-0.20523,0.0056458
0.043488,-0.10788,-0.01297,-0.037385,0.041962,-0.012055,0.0016785,-0.042878
0.04593,-0.103,-0.017548,-0.045624,0.048066,0.034333,0.093843,-0.067903
0.032807,-0.066987,-0.019989,-0.052644,0.041352,0.042878,0.028229,-0.083162
0.059358,-0.037385,-0.027619,-0.058747,0.043488,0.012055,-0.0035096,-0.08072
0.045014,-0.062104,-0.056916,-0.062409,0.032807,0.018158,-0.0013733,-0.089876
0.012665,-0.053864,-0.072175,-0.068818,0.025177,0.027314,0.014191,-0.089876
-0.019379,-0.0065614,-0.11337,-0.095064,0.026703,0.0047303,0.017548,-0.065156
-0.038605,0.018463,-0.13779,-0.09659,0.0032044,-0.0019837,-0.0041199,-0.024872
-0.052033,0.044709,-0.11917,-0.10513,-0.0090028,0.0010681,-0.0035096,0.0032044
-0.059663,0.044404,-0.11215,-0.11032,-0.025177,-0.0019837,-0.01236,0.053864
-0.031891,0.013275,-0.091096,-0.094759,-0.032807,0.0019837,0.026703,0.060578
-0.019379,-0.0053407,-0.050813,-0.084993,-0.027314,0.1033,0.10483,0.050507
-0.013581,-0.065461,-0.031586,-0.069734,-0.02945,0.16434,0.091402,0.042878
-0.024872,-0.062715,-0.043793,-0.074922,-0.019684,0.10361,-0.081636,0.051423
-0.035859,-0.056916,-0.04593,-0.07126,-0.016327,0.012055,-0.10513,0.057221
-0.033722,-0.083467,-0.011749,-0.049592,-0.0019837,-0.18692,-0.072175,0.024262
-0.0074769,-0.095674,-0.013886,-0.050202,0.059052,-0.60472,-0.099336,-0.028229
-0.00076295,-0.078279,-0.0013733,-0.065461,0.059358,-0.057832,0.067903,-0.041047
0.0035096,-0.093843,-0.016938,-0.064546,0.031891,0.22995,0.093538,-0.050813
0.0080873,-0.10544,-0.02884,-0.067292,0.053254,0.099031,0.039826,-0.034943
0.0032044,-0.082246,-0.0383,-0.073091,0.048066,0.10117,0.043488,-0.013581
-0.030976,-0.034943,-0.07187,-0.078584,0.027314,0.067292,0.023651,0.0050355
-0.034638,0.0044251,-0.10849,-0.099947,0.0080873,-0.0077821,-0.029145,0.012665
-0.073396,0.030365,-0.10666,-0.089876,-0.002594,-0.02945,0.027314,0.0080873
-0.084077,0.060578,-0.12467,-0.059052,-0.009308,0.025483,0.034028,0.044404
-0.073701,0.078279,-0.11948,-0.073701,-0.016632,0.066682,0.047761,0.10788
-0.056001,0.028229,-0.072175,-0.096895,-0.016327,0.024872,0.03769,0.085908
-0.066072,0.0032044,-0.041657,-0.098726,0.0019837,0.0053407,0.011444,0.036164
-0.077058,0.013275,-0.039216,-0.073701,-0.019684,0.014191,0.0099184,0.021515
-0.052033,-0.039521,-0.040131,-0.052644,-0.011139,0.010224,0.012055,0.0206
-0.067903,-0.040742,-0.074617,-0.1091,0.027314,0.0050355,0.018158,-0.014496
-0.043183,-0.059358,-0.041962,-0.090486,-0.0041199,0.02884,0.019989,-0.031586
-0.0047303,-0.077363,-0.0022889,-0.064851,-0.027008,0.050202,0.034943,-0.0065614
0.026093,-0.10422,-0.013886,-0.065461,0.0090028,0.034333,0.03006,-0.018769
0.048066,-0.12497,-0.0053407,-0.051423,0.024262,0.015412,0.0053407,-0.011139
0.060273,-0.10544,-0.022431,-0.041657,0.033112,0.0068666,0.0038148,0.025788
0.041657,-0.10391,-0.020294,-0.046235,0.037995,-0.0013733,-0.0041199,0.019684
0.024262,-0.077363,-0.017548,-0.06363,0.034943,-0.017243,-0.024567,-0.0062562
-0.0050355,-0.030365,-0.064851,-0.068208,0.039826,-0.0077821,-0.030671,-0.034638
-0.029145,-0.013886,-0.10605,-0.070649,0.031891,-0.0022889,-0.031891,-0.051423
-0.037079,0.012055,-0.12284,-0.093233,0.0099184,-0.010224,-0.02121,-0.039826
-0.04654,0.014496,-0.095369,-0.079194,0.0028992,-0.00076295,-0.015412,-0.023346
-0.061189,0.041657,-0.10544,-0.08835,-0.0090028,0.0062562,-0.010529,-0.0050355
-0.066072,0.035554,-0.10269,-0.10513,-0.016327,-0.00015259,0.0032044,0.009308
-0.078279,0.02945,-0.091402,-0.09781,-0.019074,0.021515,0.020294,0.033722
-0.068818,0.019379,-0.078889,-0.097505,-0.02121,0.023041,0.022126,0.075837
-0.061494,-0.015412,-0.040131,-0.09781,-0.012055,0.002594,0.024262,0.1149
-0.038605,-0.048981,-0.031586,-0.072175,0.0035096,0.0028992,0.02121,0.12436
-0.025177,-0.078279,-0.016022,-0.067292,0.01297,0.0032044,0.0068666,0.063325
-0.0068666,-0.10391,0.0032044,-0.061189,0.024262,0.010529,0.0099184,0.027008
0.010529,-0.11398,-0.0099184,-0.040436,0.037385,0.024567,0.0086976,-0.0080873
0.019684,-0.1146,-0.016022,-0.048981,0.040131,0.011139,0.005951,-0.019379
-0.0068666,-0.066072,-0.030671,-0.061189,0.026093,0.027314,0.022126,-0.030365
0.017243,-0.070039,-0.030365,-0.039216,0.036164,0.043183,0.052949,-0.021515
0.0035096,-0.058747,-0.063325,-0.052338,0.045624,0.015412,0.025177,-0.03769
-0.00076295,-0.025483,-0.074617,-0.077058,0.052338,-0.0068666,-0.02121,-0.042573
-0.044709,0.010224,-0.1033,-0.12467,0.02182,-0.0068666,-0.0206,-0.044404
-0.056916,0.013581,-0.095979,-0.099947,-0.0083925,0.005951,0.0032044,0.0035096
-0.074006,0.031891,-0.11612,-0.11307,-0.017548,0.0032044,0.009308,0.03769
-0.085603,0.062104,-0.11429,-0.10849,-0.027008,0.00076295,0.041047,0.065156
-0.084382,0.037995,-0.099031,-0.098421,-0.052949,0.013275,0.047456,0.079194
-0.075227,0.026398,-0.086519,-0.087434,-0.039216,0.0206,0.033417,0.076753
-0.053559,0.0099184,-0.065766,-0.098726,-0.031281,0.02884,0.039521,0.052338
-0.026398,-0.05478,-0.0083925,-0.073091,-0.031281,0.032807,0.045624,0.03769
0.012055,-0.084993,0.00015259,-0.051728,-0.0090028,-0.0028992,0.063325,0.039216
0.015717,-0.098726,-0.020905,-0.047761,0.022736,-0.016327,0.047456,0.027314
0.022736,-0.10361,-0.016632,-0.044709,0.025483,0.024567,0.0090028,-0.0028992
0.016938,-0.098116,-0.0068666,-0.065461,0.03006,0.062715,-0.0080873,-0.063935
0.019379,-0.094759,-0.028229,-0.046845,0.040436,0.20462,-0.028534,-0.060883
0.030365,-0.099641,-0.021515,-0.046845,0.053864,0.078889,-0.079805,-0.053254
0.026093,-0.080415,-0.042878,-0.05417,0.056916,-0.19638,-0.060883,-0.055695
0.0071717,-0.060578,-0.053864,-0.060273,0.036774,-0.05539,0.0032044,-0.044709
-0.027314,-0.031891,-0.074922,-0.070649,0.031891,-0.042267,-0.0096132,-0.043793
-0.059663,-0.0022889,-0.068818,-0.091402,0.022126,-0.04593,-0.015717,-0.045014
-0.08011,0.033722,-0.11276,-0.091402,0.011139,-0.02182,0.0038148,-0.018463
-0.058747,0.058442,-0.12924,-0.099336,-0.0047303,-0.018158,0.014801,0.018158
-0.085603,0.062409,-0.10727,-0.12131,-0.025483,0.0065614,0.027008,0.053254
-0.096284,0.034028,-0.08896,-0.1091,-0.042878,0.026398,0.035248,0.059663
-0.079194,0.03006,-0.10147,-0.11307,-0.040436,0.036774,0.025177,0.05417
-0.018158,-0.020294,-0.051728,-0.081025,-0.025483,0.022126,0.017548,0.053864
0.022126,-0.049897,-0.0383,-0.059358,-0.0096132,0.014496,0.017243,0.046235
0.011139,-0.07248,-0.02182,-0.069123,0.011444,0.018769,0.011444,0.034943
0.016938,-0.11856,0.027924,-0.05417,0.017548,0.026703,0.017548,0.018158
0.015717,-0.15702,0.0065614,-0.02884,0.022126,0.026398,0.019989,0.005951
0.0053407,-0.13077,-0.0090028,-0.044099,0.039826,0.02121,0.019379,-0.00045777
-0.016632,-0.090791,-0.027619,-0.060883,0.052033,0.022736,0.024872,-0.00045777
-0.009308,-0.07248,-0.036164,-0.06302,0.047761,0.019989,-0.011444,-0.0053407
-0.014801,-0.055695,-0.066682,-0.066682,0.043793,-0.010834,-0.052949,-0.018158
-0.057832,-0.016327,-0.074006,-0.075227,0.035859,-0.0056458,-0.051423,-0.009308
-0.089876,0.016327,-0.093538,-0.082246,0.027008,-0.049287,-0.02945,-0.015106
-0.077974,0.053864,-0.10727,-0.094759,0.019989,-0.077058,-0.0065614,0.025177
-0.065461,0.052338,-0.1146,-0.098421,-0.00045777,0.032502,0.050202,0.070344
-0.04654,0.051728,-0.10819,-0.10056,-0.019074,0.038605,0.056611,0.085298
-0.056916,0.042573,-0.070344,-0.10056,-0.023041,0.050813,0.042267,0.091402
-0.067292,0.041962,-0.084993,-0.10391,-0.032197,0.058747,0.074617,0.090181
-0.095064,0.0083925,-0.095979,-0.099947,-0.02945,0.058747,0.070344,0.06424
-0.091096,-0.042573,-0.042267,-0.074922,-0.027008,0.05478,0.048981,0.025788
-0.065461,-0.066072,-0.026093,-0.056306,-0.024872,0.043183,0.026093,-0.0035096
-0.032807,-0.093843,0.023346,-0.041352,0.0035096,0.03006,0.0013733,-0.027619
-0.009308,-0.10849,-0.0016785,-0.044099,0.027924,0.00076295,-0.014801,-0.045624
0.017243,-0.085908,-0.027619,-0.05539,0.02945,-0.010224,-0.018158,-0.062104
0.050507,-0.11093,-0.032807,-0.050507,0.033722,-0.013886,-0.031586,-0.050813
0.077363,-0.1442,-0.032807,-0.051423,0.040436,-0.013581,-0.028534,-0.04593
0.14298,-0.094759,-0.041657,-0.038605,0.045014,-0.0053407,-0.011444,-0.040742
0.075532,-0.059358,-0.062409,-0.060578,0.045014,-0.015717,-0.017243,-0.041657
0.019684,-0.034028,-0.086213,-0.08072,0.039216,-0.041047,-0.029755,-0.052949
-0.053254,-0.012665,-0.090181,-0.089876,0.022736,-0.025788,-0.02121,-0.032502
-0.11582,0.02121,-0.070039,-0.082856,0.017243,-0.014191,-0.022736,-0.029755
-0.14267,0.04593,-0.11368,-0.08957,0.009308,-0.017548,0.017243,0.0047303
-0.095979,0.12192,-0.13321,-0.11917,-0.0074769,0.0010681,0.02945,0.054475
-0.059052,0.051118,-0.091096,-0.11093,-0.048676,0.013275,0.037079,0.058137
-0.050507,-0.0099184,-0.065156,-0.079805,-0.060578,0.017243,0.036164,0.018769
-0.032807,-0.015412,-0.07248,-0.08957,-0.036469,0.022736,0.059968,0.047761
-0.011139,-0.048371,-0.045014,-0.10361,-0.015717,0.034943,0.04593,0.061494
0.00076295,-0.069429,-0.026398,-0.068208,-0.0028992,0.041657,-0.05478,0.061189
0.030976,-0.097505,-0.010834,-0.056916,0.0016785,-0.011749,-0.051423,0.080415
0.02884,-0.11032,0.002594,-0.047456,0.0077821,-0.016938,0.010834,0.061494
0.022126,-0.10819,-0.0062562,-0.051728,0.033112,0.017853,0.040436,0.017853
0.018769,-0.10391,-0.019989,-0.093538,0.045624,0.017853,0.071565,-0.0086976
0.0090028,-0.096284,-0.019074,-0.067292,0.033112,0.027314,0.081331,-0.034943
-0.024567,-0.043793,-0.046235,-0.065766,0.033722,0.038605,0.099947,-0.025788
-0.052644,-0.0041199,-0.056916,-0.066377,0.032807,0.045624,-0.040742,-0.035859
-0.04715,-0.011749,-0.08072,-0.081636,0.029755,0.002594,-0.18845,-0.016938
-0.052033,0.010529,-0.094453,-0.09781,0.0383,-0.035554,-0.074617,-0.019379
-0.07187,0.015412,-0.103,-0.084688,0.0068666,0.082246,0.048066,-0.029755
-0.093538,-0.012665,-0.096895,-0.11032,-0.031281,0.13596,0.079194,-0.018158
-0.08011,0.034333,-0.10697,-0.093538,-0.03769,0.059358,0.0065614,0.034028
-0.074922,0.091402,-0.091096,-0.083162,-0.043183,0.017243,-0.018463,0.059968
-0.06363,0.017853,-0.075227,-0.077668,-0.023041,-0.029755,-0.027619,0.070039
-0.048981,-0.041657,-0.044709,-0.063325,0.019989,-0.47868,-0.065461,0.076143
-0.033112,-0.043488,-0.041657,-0.075532,0.037385,-0.35538,-0.010529,0.059968
-0.019684,-0.077974,-0.005951,-0.065766,0.0038148,0.20768,0.092622,0.057221
0.0096132,-0.084382,-0.034638,-0.060883,-0.0068666,0.15702,0.087434,0.023957
0.023957,-0.09659,-0.030976,-0.061799,0.0050355,0.10697,0.067903,-0.0047303
0.026703,-0.121,-0.0062562,-0.05478,0.023957,0.078584,0.030365,-0.011139
0.03769,-0.11948,0.00045777,-0.041047,0.041962,0.033417,-0.0041199,-0.038605
0.022736,-0.094148,-0.035859,-0.062715,0.064546,0.019074,-0.010529,-0.036774
0.019989,-0.073701,-0.053864,-0.061799,0.051118,0.0206,-0.0053407,-0.011444
0.010834,-0.046235,-0.072786,-0.062715,0.025788,0.018463,-0.002594,-0.022736
-0.022736,-0.0074769,-0.086213,-0.08072,0.032807,0.0050355,-0.014801,-0.058137
-0.039826,0.0044251,-0.091096,-0.11398,0.023957,0.01236,-0.0062562,-0.065766
-0.069429,0.025177,-0.092012,-0.095064,-0.0050355,0.018463,-0.0010681,-0.030671
-0.075837,0.051728,-0.13138,-0.097505,-0.0090028,0.0028992,-0.0068666,0.011749
-0.069123,0.055085,-0.10544,-0.10575,-0.022126,0.0080873,-0.0028992,0.049287
-0.074922,0.039521,-0.091402,-0.10269,-0.044709,0.024872,0.037385,0.076753
-0.070649,0.015717,-0.055695,-0.083467,-0.030976,0.026398,0.031281,0.066377
-0.033112,-0.020294,-0.040131,-0.073091,-0.018463,0.015106,0.013275,0.090486
-0.010834,-0.054475,-0.039216,-0.074617,-0.00015259,0.014801,0.002594,0.066377
0.0080873,-0.072786,-0.018463,-0.070954,0.00045777,0.023346,0.017243,0.025788
0.0065614,-0.093843,-0.010529,-0.054475,-0.0010681,0.016632,0.0065614,-0.0041199
0.0065614,-0.11154,-0.016938,-0.044099,0.026093,0.016938,0.015106,-0.03769
0.0080873,-0.094759,-0.030976,-0.059663,0.030365,0.0080873,0.011139,-0.033722
0.0090028,-0.10452,-0.0065614,-0.052644,0.03006,0.0032044,0.0053407,-0.022126
0.0065614,-0.14176,0.0053407,-0.049287,0.023041,0.0041199,0.041657,-0.048676
-0.0041199,-0.092317,-0.062409,-0.07126,0.040436,0.0010681,0.024262,-0.05478
-0.032807,-0.0080873,-0.077974,-0.088655,0.041047,0.0053407,-0.010529,-0.025177
-0.064851,0.016022,-0.10208,-0.083772,0.011444,0.016022,0.0038148,-0.010834
-0.075837,0.03769,-0.11734,-0.085908,-0.0022889,0.016632,0.015412,0.0206
-0.11063,0.059358,-0.11673,-0.11643,-0.0056458,-0.0032044,-0.010529,0.016632
-0.13352,0.057527,-0.10819,-0.10636,-0.02884,-0.0035096,-0.021515,0.029755
-0.11307,0.055695,-0.090181,-0.10086,-0.04654,0.010529,0.0041199,0.080415
-0.069123,0.032502,-0.078584,-0.078279,-0.037079,0.011139,0.0013733,0.074006
-0.017548,-0.013886,-0.047761,-0.076448,-0.021515,0.0077821,0.0068666,0.039216
0.014191,-0.044099,-0.052338,-0.077668,-0.016327,0.0062562,-0.0013733,0.038911
0.02182,-0.066072,-0.040436,-0.064851,0.0056458,0.0099184,0.0010681,0.052949
0.035248,-0.088655,-0.014496,-0.041352,0.01297,0.011444,0.027314,0.077363
0.015412,-0.084688,-0.020905,-0.035554,0.028229,0.016632,0.019684,0.049897
0.02182,-0.1149,-0.020294,-0.04654,0.053559,0.028534,0.02884,-0.0019837
0.033417,-0.12161,0.018463,-0.049287,0.054475,0.020905,0.040131,-0.011139
0.027619,-0.094759,-0.029755,-0.06363,0.04593,0.017243,0.029145,-0.042878
0.0038148,-0.061799,-0.058747,-0.091707,0.043183,0.01236,0.0047303,-0.072175
-0.034943,-0.034638,-0.068513,-0.083162,0.037385,0.026703,-0.009308,-0.057527
-0.056611,-0.013581,-0.075227,-0.079194,0.0077821,-0.031891,-0.018158,-0.034333
-0.046845,0.0016785,-0.076753,-0.076753,-0.0047303,-0.055695,-0.016632,0.011139
-0.030976,0.017853,-0.11032,-0.088655,-0.016327,0.036774,0.017548,0.013275
-0.044709,0.035248,-0.12436,-0.121,-0.016632,0.0071717,-0.0041199,0.0074769
-0.07187,0.056001,-0.11124,-0.10147,-0.020905,-0.005951,-0.014191,0.030976
-0.087739,0.02945,-0.1033,-0.086824,-0.026398,0.0028992,0.0047303,0.042267
-0.085603,-0.0047303,-0.073091,-0.081331,-0.0086976,0.019074,0.027008,0.055695
-0.081636,-0.0068666,-0.076753,-0.088655,0.0032044,0.022736,0.027008,0.070039
-0.078889,-0.022126,-0.048371,-0.075837,-0.010834,0.034943,0.02884,0.055085
-0.020294,-0.10697,0.027619,-0.037385,-0.017548,0.034028,0.042878,0.042878
0.0086976,-0.1265,0.045624,-0.042878,0.025483,0.0044251,0.010834,0.010529
0.018158,-0.1088,-0.0090028,-0.061494,0.048371,-0.014801,-0.011444,-0.02945
0.029145,-0.091707,-0.018463,-0.044099,0.047761,-0.017548,0.0071717,-0.04593
0.052033,-0.12009,-0.017548,-0.024872,0.043488,-0.00015259,0.013886,-0.054475
0.050202,-0.10239,-0.045014,-0.075227,0.048981,-0.0019837,0.017853,-0.057832
0.048066,-0.071565,-0.056916,-0.079805,0.041047,-0.011749,-0.0090028,-0.049592
0.032807,-0.031891,-0.074617,-0.087739,0.021515,-0.0062562,-0.016632,-0.059663
-0.0022889,0.0083925,-0.087434,-0.092927,0.016022,-0.014191,-0.010224,-0.043183
-0.0383,0.028534,-0.11124,-0.10758,-0.0047303,-0.005951,0.0016785,-0.023346
-0.066987,0.041352,-0.11826,-0.1091,-0.013275,0.018463,0.0090028,0.019379
-0.074006,0.035554,-0.1091,-0.097505,-0.02884,0.02121,0.0038148,0.040436
-0.075227,0.014191,-0.090486,-0.0972,-0.036469,0.015106,0.009308,0.082856
-0.077974,-0.0077821,-0.060578,-0.082551,-0.026703,0.019989,0.023957,0.091707
-0.084077,0.017243,-0.076143,-0.099336,-0.025788,0.013886,0.0099184,0.061189
-0.063325,-0.010529,-0.051728,-0.089876,-0.022736,0.014496,-0.00076295,0.031281
-0.050813,-0.039521,-0.032197,-0.070954,-0.021515,0.0099184,0.012665,-0.018463
-0.026703,-0.057832,-0.0086976,-0.050813,-0.0044251,0.0083925,0.0080873,0.0050355
-0.019684,-0.084077,-0.017548,-0.041657,0.013886,0.0086976,0.023651,0.058137
-0.0013733,-0.08896,-0.0086976,-0.053559,0.033722,0.0022889,0.02884,0.050202
-0.00076295,-0.078889,-0.0062562,-0.045319,0.055695,0.0086976,0.033417,0.0019837
-0.02121,-0.084688,-0.0206,-0.060578,0.055085,0.03006,0.038911,-0.023041
-0.0071717,-0.097505,-0.035554,-0.050507,0.029755,0.032502,0.048371,-0.017243
-0.010529,-0.06363,-0.082856,-0.075227,0.030976,0.019379,0.021515,-0.036469
-0.027619,-0.028229,-0.076753,-0.074311,0.030365,0.019989,-0.0062562,-0.041657
-0.05539,-0.0022889,-0.090791,-0.083467,0.0071717,0.018769,0.00045777,-0.041047
-0.064851,0.024567,-0.1088,-0.095674,0.002594,-0.0022889,0.0019837,-0.0206
-0.069123,0.024567,-0.10819,-0.093843,-0.0071717,-0.011139,0.0013733,0.016938
-0.091402,0.035248,-0.1146,-0.10147,-0.015106,-0.005951,0.04715,0.065156
-0.057221,0.033112,-0.10361,-0.11643,-0.025177,0.0083925,0.082246,0.093843
-0.033112,0.032197,-0.10605,-0.11246,-0.032502,0.024567,0.085298,0.093843
-0.023346,-0.005951,-0.052644,-0.084993,-0.02945,0.036164,0.098726,0.057221
-0.010834,-0.044404,-0.015717,-0.051118,-0.0053407,0.017853,-0.10697,0.023346
-0.0083925,-0.059968,-0.032197,-0.058747,0.022736,-0.017243,-0.30106,-0.002594
0.0065614,-0.087434,-0.023957,-0.06302,0.026703,-0.032807,-0.023651,0.0053407
0.0090028,-0.088045,-0.0013733,-0.05539,0.02945,0.0041199,0.043183,-0.0013733
0.030976,-0.12589,0.0065614,-0.038605,0.04593,0.009308,0.00076295,-0.034943
0.027008,-0.14267,0.016022,-0.033722,0.052338,-0.0013733,0.025483,-0.049287
0.033417,-0.15824,0.011749,-0.034333,0.062104,-0.013581,0.02121,-0.069123
0.026703,-0.097505,-0.039826,-0.074922,0.049897,-0.05539,0.0071717,-0.061799
-0.0044251,-0.018769,-0.098421,-0.099947,0.027619,-0.071565,0.0090028,-0.035248
-0.017548,0.0032044,-0.095064,-0.08072,-0.0010681,-0.015717,0.0071717,-0.018463
-0.037385,0.0056458,-0.11734,-0.08957,0.0047303,0.048371,0.020905,0.013275
-0.059968,0.020294,-0.11337,-0.092317,0.00045777,0.21134,0.013581,0.027314
-0.054475,0.033417,-0.11612,-0.10666,-0.0053407,0.14176,-0.030365,0.043793
-0.058137,0.058137,-0.095979,-0.094453,-0.019684,-0.13748,-0.023041,0.071565
-0.05478,0.0206,-0.050202,-0.096895,-0.036774,-0.0032044,0.045319,0.062104
-0.063325,-0.002594,-0.037995,-0.091402,-0.033112,0.015106,0.0383,0.062409
-0.063325,-0.01236,-0.056916,-0.074922,-0.020905,-0.016327,0.019074,0.039521
-0.028534,-0.034638,-0.053254,-0.092317,-0.0019837,0.0022889,0.034028,0.019074
0.014191,-0.074006,-0.041047,-0.087434,-0.0056458,0.0077821,0.037385,0.009308
0.061494,-0.090791,-0.017853,-0.059663,-0.0096132,0.022431,0.041047,0.011444
0.022126,-0.087739,-0.017853,-0.044404,0.010529,0.025177,0.048981,-0.00076295
-0.010834,-0.099336,-0.010529,-0.041352,0.0383,0.017243,0.049287,-0.028534
-0.044404,-0.094148,-0.020905,-0.051118,0.047456,0.020905,0.03769,-0.016327
-0.06363,-0.076753,-0.033722,-0.060273,0.063325,0.017853,0.031891,-0.027008
-0.085908,-0.017853,-0.051118,-0.075532,0.051423,0.014496,0.023041,-0.044404
-0.066987,0.013581,-0.076143,-0.073701,0.027314,0.018769,0.014191,-0.034638
-0.059358,-0.029755,-0.092317,-0.090486,0.013581,0.020905,0.041352,-0.015106
-0.092317,0.0041199,-0.10666,-0.10544,-0.0010681,0.01236,0.039826,0.01297
-0.12924,0.032197,-0.11765,-0.10666,-0.027619,0.02884,0.020294,0.050202
-0.10147,0.037385,-0.08835,-0.095369,-0.035859,0.016022,-0.0096132,0.076143
-0.059358,0.022126,-0.090181,-0.11124,-0.034943,-0.017853,-0.017243,0.090486
-0.018463,0.027924,-0.099641,-0.094453,-0.031281,-0.093233,-0.014496,0.092622
0.022736,0.021515,-0.075837,-0.072175,-0.016938,0.019989,0.019684,0.094453
0.042267,-0.019379,-0.062715,-0.060273,0.00045777,0.059663,0.044099,0.099031
0.01297,-0.070344,-0.016327,-0.050202,0.010834,0.015412,0.026703,0.048981
-0.020905,-0.10605,0.0086976,-0.058442,0.021515,-0.0028992,-0.0068666,-0.0028992
-0.031281,-0.091402,-0.017548,-0.050813,0.039826,-0.015412,-0.023651,-0.051423
-0.013275,-0.096895,-0.020294,-0.036774,0.035859,0.0086976,-0.0062562,-0.057221
0.016938,-0.1207,-0.0077821,-0.052949,0.032197,0.037995,0.0074769,-0.055695
0.025483,-0.10666,-0.034028,-0.05478,0.034333,0.14145,0.06302,-0.073091
0.03006,-0.10239,-0.056306,-0.056916,0.026703,0.13657,0.04715,-0.083467
0.0090028,-0.072786,-0.057221,-0.071565,0.037995,0.055695,-0.030365,-0.065156
-0.0047303,-0.034333,-0.070039,-0.078889,0.02945,0.010529,-0.07187,-0.031281
-0.010224,-0.0074769,-0.088045,-0.091402,0.0010681,-0.090181,-0.095979,-0.014496
-0.030365,0.0080873,-0.095979,-0.08957,0.033417,-0.58518,-0.13993,-0.014496
-0.036774,0.041657,-0.10208,-0.103,0.027314,-0.24155,-0.028229,0.011139
-0.047761,0.028229,-0.070649,-0.083772,-0.013581,0.21012,0.07248,0.052338
-0.039826,0.0035096,-0.095369,-0.094453,-0.017548,0.10697,0.053559,0.069734
-0.057832,0.026398,-0.0972,-0.11582,-0.013581,0.076448,0.049287,0.061189
-0.060578,0.012665,-0.057221,-0.10697,-0.0206,0.074617,0.056611,0.074006
-0.059052,-0.011444,-0.052644,-0.10483,-0.025788,0.084688,0.056306,0.075837
-0.067292,-0.031891,-0.031891,-0.080415,-0.011139,0.088655,0.083467,0.074311
-0.065156,-0.068513,-0.0086976,-0.066377,0.0035096,0.030976,0.03006,0.045014
-0.0068666,-0.10788,-0.0019837,-0.060578,0.014801,-0.022736,0.010529,0.030365
0.019989,-0.10452,-0.0080873,-0.047456,0.019684,-0.00076295,0.048981,0.021515
0.02121,-0.096284,-0.015412,-0.051728,0.020905,0.071565,0.037385,-0.013275
0.068208,-0.11276,-0.030671,-0.033722,0.034028,0.055085,0.025483,-0.056611
0.055695,-0.081331,-0.062715,-0.066682,0.041047,0.0062562,-0.014496,-0.11032
0.0019837,-0.058747,-0.065766,-0.070954,0.034028,0.0068666,-0.036469,-0.11795
-0.030976,-0.046235,-0.075837,-0.073396,0.0080873,0.0062562,-0.018463,-0.055695
-0.0795,-0.005951,-0.096895,-0.084688,0.015717,-0.013581,-0.010529,0.0032044
-0.092317,0.020294,-0.074006,-0.081331,0.010529,-0.0068666,-0.016327,-0.0080873
-0.11032,0.055695,-0.1323,-0.11276,-0.0028992,-0.00015259,-0.021515,-0.014191
-0.11337,0.053559,-0.10849,-0.10513,-0.025788,-0.0077821,-0.018463,0.0053407
-0.10819,0.045624,-0.095064,-0.09781,-0.030976,-0.0047303,0.00045777,0.075227
-0.10636,0.054475,-0.088045,-0.12436,-0.02121,0.0080873,0.027619,0.10208
-0.10575,0.033417,-0.074617,-0.095064,-0.030365,0.022431,0.037995,0.094759
-0.039826,-0.032807,-0.036469,-0.059663,-0.033417,0.042878,0.049592,0.11368
-0.0056458,-0.094759,0.019989,-0.05539,0.0053407,0.020294,0.02945,0.12284
0.030365,-0.12619,0.00045777,-0.041047,0.023957,-0.0038148,0.013581,0.082246
0.06363,-0.12406,-0.0099184,-0.044709,0.025177,-0.0096132,0.023651,0.024262
0.053864,-0.13046,-0.0096132,-0.034638,0.039216,-0.0071717,0.035554,-0.041962
0.051118,-0.12955,0.0086976,-0.047456,0.048371,0.015106,0.036774,-0.093233
0.033112,-0.090791,-0.038911,-0.055695,0.053864,0.0028992,-0.0096132,-0.14145
0.034943,-0.082551,-0.066072,-0.070344,0.044099,-0.0041199,-0.026398,-0.1091
0.032807,-0.06363,-0.048371,-0.076753,0.023346,0.0065614,0.0071717,-0.075532
-0.0056458,-0.042267,-0.086213,-0.092317,0.029755,-0.011749,-0.019379,-0.031891
-0.04654,0.019684,-0.11673,-0.091402,0.015717,-0.0028992,-0.017243,0.033112
-0.070954,0.066682,-0.11765,-0.1088,-0.0028992,-0.0099184,-0.0022889,0.054475
-0.085603,0.059663,-0.10697,-0.10452,-0.015106,0.0083925,0.0086976,0.04715
-0.092927,0.048676,-0.094759,-0.088655,-0.020905,0.016022,-0.0086976,0.052949
-0.11551,0.04593,-0.10452,-0.092317,-0.027008,0.027924,-0.0083925,0.037385
-0.10819,0.033722,-0.077974,-0.098726,-0.02945,0.048066,0.025483,0.061189
-0.062104,-0.0038148,-0.044709,-0.075227,-0.024872,0.043183,0.051423,0.091707
-0.038911,-0.046235,-0.029145,-0.09659,-0.019379,0.041352,0.051728,0.07187
-0.018769,-0.077668,-0.016632,-0.066377,0.0038148,0.025483,0.024262,0.041047
0.0071717,-0.097505,0.00015259,-0.053559,0.02121,0.018769,0.023651,0.019074
0.020294,-0.095674,-0.0099184,-0.044709,0.035554,0.02121,0.02121,0.0071717
0.037995,-0.094148,-0.019684,-0.05417,0.03769,0.0028992,0.0047303,-0.020294
0.032807,-0.10666,-0.029145,-0.03769,0.043488,-0.019379,-0.016938,-0.031281
0.02182,-0.096284,-0.0206,-0.052949,0.054475,-0.024262,-0.0068666,-0.042573
-0.0090028,-0.061494,-0.043793,-0.088655,0.049287,-0.0080873,0.012055,-0.0206
0.00076295,-0.065461,-0.058442,-0.066987,0.026703,0.024567,0.015717,-0.019074
-0.024872,-0.030365,-0.0972,-0.051118,0.027314,0.012665,-0.011444,-0.016632
-0.032807,0.00045777,-0.1149,-0.096284,0.025483,-0.027008,-0.0041199,0.002594
-0.051728,0.025177,-0.1088,-0.11246,0.0028992,-0.036164,-0.002594,0.0038148
-0.08011,0.081331,-0.13046,-0.12192,-0.033722,-0.00015259,0.015717,0.018769
-0.081636,0.049287,-0.1088,-0.086519,-0.039826,0.042573,0.034943,0.035859
-0.084077,0.049287,-0.096895,-0.10483,-0.031586,0.0383,0.019684,0.029145
-0.071565,0.019379,-0.084382,-0.12314,-0.027008,0.009308,0.0050355,0.010834
-0.040436,-0.033722,-0.035554,-0.072175,-0.018463,0.022736,0.0065614,0.0096132
-0.017243,-0.094759,0.018158,-0.023346,-0.0032044,0.028534,0.022736,0.019074
-0.0090028,-0.098726,-0.02182,-0.045014,0.027619,0.017243,0.013581,0.0065614
0.026093,-0.10636,0.028534,-0.059663,0.02884,0.0071717,0.025483,-0.010529
0.035859,-0.11215,0.0080873,-0.048676,0.027924,-0.0032044,0.027314,-0.022126
0.032807,-0.1146,-0.022431,-0.039216,0.046845,-0.011444,-0.0028992,-0.029755
0.025788,-0.059358,-0.042878,-0.070649,0.05539,-0.013581,-0.0080873,-0.035554
-0.014496,-0.081636,-0.032807,-0.07126,0.052338,0.010529,0.017548,-0.0013733
-0.031586,-0.070344,-0.052338,-0.068208,0.039826,0.040131,0.049592,0.05539
-0.03769,-0.026398,-0.070954,-0.074922,0.024262,0.024262,0.044099,0.041962
-0.053254,0.016327,-0.11948,-0.0972,0.017548,-0.00076295,0.017243,0.017548
-0.051728,0.052338,-0.12436,-0.095674,-0.00015259,0.012055,0.0053407,0.045319
-0.054475,0.044099,-0.10636,-0.09781,-0.014801,0.031586,0.011139,0.057221
-0.068818,0.058137,-0.10666,-0.091402,-0.02121,-0.037995,-0.015717,0.02884
-0.064546,0.040131,-0.085908,-0.095674,-0.024262,-0.086519,-0.035859,0.022126
-0.060883,0.0071717,-0.081941,-0.10941,-0.027008,0.032502,0.009308,0.053864
-0.02884,-0.032502,-0.05478,-0.080415,-0.030365,0.042878,0.020905,0.045319
-0.0028992,-0.040131,-0.037995,-0.061494,-0.023651,0.032197,0.0068666,0.023346
0.0096132,-0.08072,-0.013581,-0.061494,0.0010681,0.031281,0.0038148,0.025483
0.016022,-0.10697,-0.0047303,-0.046845,0.0041199,0.015412,-0.0062562,0.005951
0.022736,-0.11002,-0.002594,-0.044404,0.017548,0.016938,-0.012665,-0.0090028
0.024262,-0.11032,-0.0047303,-0.058442,0.027314,0.012665,-0.0096132,-0.022736
0.02884,-0.11368,-0.0096132,-0.059358,0.036774,0.0077821,-0.0047303,-0.04593
0.020905,-0.10422,-0.019684,-0.056306,0.03769,0.042878,0.01297,-0.059358
-0.017548,-0.066987,-0.068513,-0.066682,0.041352,0.15702,0.078584,-0.041352
-0.044709,-0.033417,-0.079194,-0.07248,0.044404,0.10452,0.057221,-0.019379
-0.067292,0.0032044,-0.092012,-0.087434,0.016632,0.043183,0.0086976,-0.00015259
-0.10239,0.018463,-0.1149,-0.11154,0.0028992,0.026093,-0.026398,0.0206
-0.11429,0.017853,-0.10819,-0.10452,-0.0044251,-0.10758,-0.0383,0.053864
-0.10727,0.085603,-0.088045,-0.10452,0.025177,-0.57633,-0.045014,0.067292
-0.099031,0.1207,-0.065156,-0.094759,0.01297,-0.11398,0.090181,0.06363
-0.073701,0.011749,-0.090486,-0.077058,-0.039826,0.2385,0.16281,0.059968
-0.060883,0.0041199,-0.098116,-0.087129,-0.025177,0.10391,0.13993,0.053559
-0.024567,-0.027619,-0.062715,-0.075227,-0.015717,0.089876,0.084382,0.055085
-0.0096132,-0.061799,-0.027924,-0.079194,-0.0010681,0.051728,-0.13962,0.050202
0.0074769,-0.0795,-0.0065614,-0.069123,0.010834,0.051118,-0.094453,0.012665
0.012055,-0.103,-0.016938,-0.068818,0.02121,0.065461,-0.0083925,0.010529
0.0038148,-0.10758,-0.01236,-0.068818,0.019989,0.022126,-0.010224,-0.034333
0.041047,-0.12436,-0.01236,-0.053559,0.027008,0.005951,-0.0035096,-0.053254
0.042878,-0.10788,-0.028534,-0.061799,0.030976,0.0077821,-0.009308,-0.031281
0.017243,-0.088045,-0.033112,-0.051118,0.035859,0.016022,0.027924,-0.017548
