-0.018769,0.098726,-0.037995,-0.31754,-0.20096,-1.791,-0.44511,-0.053254
-0.065156,0.093538,-0.02884,-0.15732,-0.07126,-0.15518,0.084077,-0.00045777
-0.09781,-0.0016785,0.0013733,-0.057527,0.033722,0.81743,0.54093,0.024872
-0.057832,-0.033417,-0.011749,0.031586,-0.11368,0.40421,0.56016,0.077974
-0.10941,0.0022889,-0.074617,-0.0028992,0.19486,0.38682,0.61967,0.11643
-0.063325,0.039826,-0.13962,-0.05478,0.21927,0.33188,-0.081025,0.12406
0.0016785,0.11521,-0.15396,-0.11704,-0.085603,0.3032,-0.96056,0.078584
0.010529,0.058747,-0.15,-0.039216,-0.10758,0.075227,0.33921,0.017243
0.039826,0.058442,-0.11093,-0.096284,-0.023041,-0.5452,0.6273,0.07248
0.024262,-0.026398,-0.084993,-0.35996,-0.014801,-0.32578,0.16068,0.052949
-0.0074769,-0.062104,-0.089265,-0.23362,0.017853,-0.025788,-0.69596,-0.056611
-0.070649,0.0080873,-0.018158,0.24338,0.1735,-0.76036,-0.98161,-0.077058
-0.082246,-0.036774,-0.0090028,-0.2443,0.14267,-0.16037,-0.51743,-0.051728
-0.0074769,-0.15,0.013581,-0.12436,0.0096132,0.68864,-0.22263,-0.027619
-0.00045777,-0.21225,0.0056458,0.10788,0.019074,0.4152,-0.044709,-0.077363
-0.0044251,-0.21225,0.085908,-0.13901,-0.15091,-0.62852,-0.23728,-0.075227
-0.044404,-0.18845,-0.035554,-0.10056,0.00076295,-0.15518,0.18173,-0.12619
-0.036774,-0.14969,-0.051728,-0.1384,0.053254,0.28397,0.54093,-0.10727
-0.014191,-0.0047303,-0.056611,-0.051423,-0.0071717,0.17807,0.34134,0.029755
-0.028534,0.083467,-0.070954,0.039521,-0.012665,0.16129,0.18906,0.10666
-0.022126,-0.046235,-0.070954,-0.022126,0.0041199,0.052949,0.4802,0.14817
-0.050813,-0.0096132,-0.040436,-0.07126,0.002594,0.1146,0.85954,0.18875
-0.099641,0.1207,-0.16464,-0.13321,0.013275,0.050202,0.26535,0.16709
-0.079805,0.095369,-0.11124,0.005951,0.031891,-0.043793,-0.75334,0.094148
-0.04593,0.09659,-0.121,0.066682,0.056916,0.024872,0.45365,0.017548
-0.040436,0.061189,-0.079194,-0.058747,0.048981,-0.022736,-0.16037,-0.017243
-0.062715,0.018463,-0.086213,-0.15885,0.0090028,-0.090486,-1.0192,0.0077821
-0.061189,0.053559,-0.1033,-0.14725,-0.016938,-0.077668,-0.072786,-0.00015259
-0.041657,0.086213,-0.05478,-0.12284,-0.10941,0.036469,-0.65965,0.0077821
-0.015412,-0.030671,0.018769,-0.034638,-0.12955,0.01236,-0.19059,-0.039826
0.024872,-0.13169,-0.023041,-0.02945,-0.078279,0.22171,0.59678,-0.048371
0.059358,-0.23148,0.047761,-0.34379,-0.038605,0.19547,0.36606,-0.025177
0.04593,-0.20798,0.014801,-0.23117,-0.021515,0.16678,0.2089,-0.052949
0.045014,-0.15061,0.0047303,0.13931,0.15122,-0.0013733,0.32792,-0.014801
-0.020905,-0.060578,-0.040742,-0.015412,0.46586,-0.32181,0.22385,-0.041352
-0.024262,-0.07248,-0.044099,0.033417,0.24918,-0.24491,0.41001,0.050507
-0.02121,-0.092927,-0.056001,-0.048981,-0.21103,0.2681,0.48814,0.13626
-0.076143,-0.009308,-0.10666,-0.16342,-0.25864,0.11521,0.20859,-0.027619
-0.047761,-0.016938,-0.076753,-0.15457,-0.061189,-0.076143,0.04593,-0.025788
-0.0383,0.028229,-0.13352,-0.084688,0.16007,-0.23697,0.023346,-0.017243
-0.049287,0.1265,-0.12741,-0.11734,0.23392,-0.32456,-1.108,-0.14755
-0.099947,0.090181,-0.13565,-0.18601,-0.12802,0.30259,-1.0799,-0.074922
-0.10422,-0.030976,-0.092622,-0.055085,-0.11826,0.29465,-0.36423,0.031891
-0.098421,-0.0041199,-0.086213,-0.056611,-0.086824,0.30838,-0.34775,0.1207
-0.0090028,-0.034943,-0.066072,0.10819,-0.062715,0.13901,0.16434,0.092927
0.04715,-0.066987,-0.016938,0.092317,0.13779,-0.68711,0.22354,-0.034943
-0.030671,0.08072,-0.027008,-0.12558,0.15579,-0.19699,0.045624,-0.08835
-0.0795,0.076753,0.0065614,-0.0972,0.014801,-0.46189,-0.31022,0.011444
-0.068818,0.026398,0.055695,-0.050813,0.10544,-0.37949,0.1622,0.17014
0.016938,-0.11093,0.041657,-0.3267,0.16098,0.34012,0.41123,0.12039
0.094453,-0.23453,-0.016327,-0.41428,-0.11826,0.1976,0.14878,-0.034943
0.14023,-0.44816,0.0071717,0.61326,-0.45457,0.39414,0.15427,-0.063935
0.090181,-0.20981,-0.10452,-0.071565,0.14328,0.19791,0.17777,-0.064546
0.074617,-0.15793,-0.17105,-0.16251,0.0068666,0.095064,0.16464,-0.027619
0.024872,0.017853,-0.096284,-0.13565,-0.018463,0.17105,0.28183,0.011749
-0.032502,0.075837,-0.12039,-0.15152,0.019684,-0.12619,0.22599,-0.029755
-0.075532,0.07126,-0.12955,-0.16892,0.077363,-0.59892,0.040131,-0.060883
-0.075837,0.048371,-0.073091,0.168,0.026703,0.24887,-0.4979,-0.074006
-0.16373,0.10117,-0.084077,-0.2504,-0.14389,0.34684,-0.51499,0.051118
-0.19486,0.2092,-0.096284,-0.16312,-0.13931,0.053254,0.38285,0.23209
-0.087129,0.04593,-0.058137,-0.095369,-0.14359,0.50278,0.50278,0.26291
-0.085908,-0.032502,-0.035554,-0.017243,-0.15488,0.72831,0.24094,0.20127
-0.087129,-0.0016785,-0.020905,-0.14969,0.34501,-0.011139,0.17716,0.077668
-0.074922,-0.10422,0.0044251,-0.050507,0.22782,-1.2282,0.22751,0.029145
-0.055085,-0.088045,-0.0080873,0.0053407,0.098726,-0.57328,0.096284,-0.00015259
-0.045624,-0.047761,0.0019837,-0.00015259,0.064546,-0.23484,-0.0972,0.0019837
0.013275,-0.11063,-0.017853,-0.082246,0.019379,0.17441,0.15305,-0.002594
0.11673,-0.22538,-0.0053407,-0.26841,0.069123,0.47745,-0.10361,-0.089876
0.062409,-0.089876,-0.075837,-0.050507,-0.087739,0.51591,-0.11337,-0.17319
0.028229,0.027924,-0.094759,-0.0053407,-0.02884,0.64927,-0.48264,-0.16556
0.0047303,0.056306,-0.11368,-0.15061,0.20035,0.14694,-1.5206,-0.18814
-0.0041199,0.041657,-0.059358,-0.077668,0.19516,-1.2044,-0.41154,-0.050813
0.019074,-0.090181,-0.07126,-0.10575,0.033722,-1.0118,0.67002,-0.00045777
-0.0035096,-0.16495,-0.1146,-0.09659,-0.016938,0.27481,0.49973,-0.025483
-0.090181,0.042267,-0.13138,0.18845,0.047761,-0.092317,-0.7396,-0.081941
-0.12375,0.19638,-0.13382,-0.019684,-0.061799,0.58946,-0.88487,-0.019379
-0.18265,0.17838,-0.12253,-0.18265,-0.17105,0.41093,0.67765,0.12772
-0.096895,-0.0062562,-0.0090028,-0.093538,-0.2031,-0.059358,0.54398,0.16495
-0.010834,-0.20005,-0.027008,-0.2092,-0.30411,-0.49424,0.16281,0.12772
0.028229,-0.19577,-0.051728,-0.46159,0.093843,0.082551,0.21256,0.012665
0.098726,-0.17807,0.039521,0.019989,0.17044,0.23545,0.49729,0.0099184
0.10239,-0.18448,0.013581,0.0028992,0.047456,0.20249,0.68864,-0.038911
0.024872,-0.052949,0.025788,0.063935,-0.013581,0.18723,0.08072,-0.10086
-0.030365,-0.037385,-0.032197,0.016632,0.0047303,0.10178,-0.44724,-0.064851
-0.043183,0.12467,-0.067903,0.016022,0.059358,0.10117,0.2681,0.025177
-0.052949,0.075837,-0.082551,0.12161,-0.04654,0.058747,0.57633,0.075837
-0.056611,0.048676,-0.077974,-0.40665,-0.013275,-0.121,-0.37064,0.048371
0.085908,-0.21897,0.044099,0.21225,0.12009,-0.16464,-1.1916,0.031586
0.051423,-0.21988,-0.12955,-0.24704,0.059052,-0.035859,-0.74388,0.028229
0.012055,-0.16403,-0.15122,-0.16495,-0.027619,0.027008,0.13901,0.14694
-0.067903,0.12711,-0.12436,-0.12345,-0.11368,0.069123,0.61112,0.11185
-0.093843,0.091707,0.017243,0.039826,-0.027619,0.21866,0.44694,0.056611
-0.12772,0.088655,-0.084688,0.19547,0.14511,0.21439,0.17929,0.043488
-0.21622,0.21225,-0.16312,-0.13596,0.16129,0.13107,-0.25071,-0.034638
-0.12161,0.017243,-0.052033,-0.062409,0.10605,0.2327,0.39689,0.092927
0.042267,-0.32181,-0.048676,-0.25284,0.38285,-0.1442,0.6389,0.11887
0.070039,-0.16495,-0.0065614,-0.20829,-0.19883,-0.22354,-0.049287,0.0010681
0.10239,-0.22751,0.049592,-0.023651,-0.69352,-0.3978,-0.64775,-0.042878
0.087434,-0.15579,-0.044404,-0.12436,-0.22629,-0.45701,-0.25559,-0.12985
0.0016785,0.02945,-0.019684,-0.19333,0.10788,0.3331,0.24277,-0.17472
-0.063325,0.026703,-0.026398,0.49516,0.12009,0.41123,-0.15763,-0.10788
-0.11124,0.023957,0.002594,-0.10452,0.17899,0.12924,0.23545,-0.063325
-0.049287,-0.023957,-0.034943,-0.081025,0.13321,-0.30564,0.02121,0.019074
-0.002594,-0.072175,-0.062104,-0.20737,0.10544,-0.25864,-0.052033,0.039826
-0.024262,-0.040742,-0.10513,-0.19211,0.018158,0.47471,0.28061,0.041352
-0.05539,0.12863,-0.24155,-0.29709,0.012055,0.1854,-0.62272,-0.0050355
-0.056916,0.059358,-0.050507,0.15854,0.12253,-0.65354,-0.59281,-0.078889
-0.08896,-0.031586,-0.092622,-0.16556,0.13779,-0.53635,-0.075532,-0.078279
-0.17899,0.12436,-0.1091,-0.21317,-0.012665,-0.1738,-0.0206,0.0019837
-0.070649,0.11795,-0.097505,-0.12955,-0.23606,-0.36088,-0.74784,0.0383
-0.042878,0.14817,-0.064851,-0.079194,-0.081025,0.6215,0.17441,0.10178
-0.023651,-0.0065614,-0.016632,-0.010529,-0.12345,0.51316,0.44968,0.077974
0.051118,-0.21347,-0.0096132,-0.053559,-0.018769,0.042878,0.012665,0.068513
0.065766,-0.12985,-0.030671,-0.085908,-0.37034,0.099947,0.56413,0.025177
0.031281,-0.085908,0.0056458,0.03006,0.17136,-0.23606,0.48875,0.041047
-0.037385,-0.084382,-0.0053407,0.040131,0.39078,-0.13382,0.32975,0.053559
-0.092927,-0.096895,0.0019837,-0.074311,-0.099336,0.34928,0.04654,0.026093
-0.074617,-0.12772,-0.022736,-0.013275,0.10544,-0.02884,-0.33433,0.052949
0.014191,-0.2678,-0.024567,-0.00015259,0.07187,0.025483,0.036164,0.034943
-0.069123,0.086519,-0.093538,-0.20096,-0.014191,0.0080873,-0.23362,-0.060883
-0.046845,0.030365,-0.13748,-0.31144,0.033417,-0.048371,-0.094453,-0.039216
-0.023346,0.032502,-0.11978,-0.086519,0.11185,0.20005,0.12863,-0.020294
-0.016938,0.018158,-0.103,-0.13382,0.0065614,0.54734,-0.002594,-0.0090028
-0.039826,-0.072175,-0.045624,-0.069123,-0.05478,0.48753,0.45609,0.21195
0.0028992,-0.13352,-0.03769,-0.0080873,-0.026398,-0.17594,0.46586,0.1387
0.002594,0.033722,-0.13107,-0.0022889,-0.23545,-0.32059,-0.022126,-0.027008
-0.054475,0.12253,-0.16312,0.095674,-0.15885,-0.59251,-0.21317,-0.081025
0.009308,-0.086213,-0.015717,-0.14908,0.075227,-0.20096,0.050507,-0.11978
0.0074769,-0.086213,-0.030671,-0.18173,0.21164,-0.45792,-0.82444,-0.17716
-0.00076295,0.0077821,-0.024567,-0.0035096,0.11002,-0.18784,-1.0561,-0.074006
0.002594,-0.014191,-0.0053407,-0.082246,-0.019684,0.039521,-0.016938,0.092012
-0.010224,-0.031891,-0.022431,-0.121,-0.011444,0.28214,0.40177,0.14328
-0.050507,0.029755,0.0022889,-0.030365,-0.076143,0.57267,0.37675,0.077363
-0.04654,-0.010834,-0.0096132,-0.14847,-0.079194,0.74907,0.42069,0.043488
-0.016938,-0.1445,0.048371,-0.21195,-0.01236,0.63981,0.31235,0.039521
-0.049592,-0.061799,-0.12619,-0.309,-0.019684,-0.39322,0.14908,-0.034638
0.044404,-0.17838,-0.032502,0.24491,0.30777,-1.5364,0.067597,-0.032807
0.12924,-0.374,-0.0080873,0.075532,0.39689,-0.50217,-0.048676,-0.10147
0.0383,-0.13535,-0.15335,-0.17777,0.099947,-0.0090028,-0.3743,-0.18112
-0.050813,0.016022,-0.092927,0.1738,-0.08957,0.60136,-0.42924,-0.11612
-0.11215,0.16251,-0.13474,-0.059358,-0.15946,0.23362,0.013581,0.02182
-0.12833,0.22965,-0.16892,-0.19699,-0.21347,0.30961,0.63554,0.13901
-0.11124,0.21134,-0.15763,-0.14389,-0.18021,0.33738,0.6508,0.23362
-0.13016,0.11032,-0.10208,-0.11978,-0.13626,0.16159,0.2034,0.19455
-0.12436,0.032502,-0.058442,-0.10941,0.11154,-0.14359,-0.59098,0.11368
-0.090791,-0.059358,0.07187,-0.083162,0.38895,-0.52384,-0.086213,0.10391
-0.061494,-0.10605,-0.031891,-0.096895,0.062104,-0.091707,-0.058137,0.048066
0.0096132,-0.044709,-0.019074,-0.069734,-0.31968,0.43168,0.35203,0.029145
0.06363,-0.10178,-0.010529,-0.034333,-0.16556,0.33127,-0.4033,-0.069734
0.12528,-0.21561,0.005951,-0.077363,0.069123,0.24033,-0.78477,-0.14023
0.19944,-0.33646,0.024872,-0.24033,-0.12528,-0.15366,0.60288,-0.15793
0.21469,-0.3621,0.032502,-0.28122,-0.081636,-0.66667,0.45365,-0.27359
0.18784,-0.29374,-0.005951,0.55375,0.31174,-0.16709,0.20279,-0.24125
0.079194,0.067597,-0.095369,-0.091707,0.28794,-0.47684,-0.15396,-0.1619
-0.051728,0.069734,-0.18173,-0.18723,0.14572,0.00076295,-0.6566,-0.103
-0.16037,0.15976,-0.15915,0.0050355,0.11032,0.26413,-1.3924,-0.023346
-0.19242,0.22965,-0.1268,0.046845,-0.072786,0.21561,-0.27176,0.215
-0.19486,0.17624,-0.10941,-0.076448,-0.23728,0.58396,0.90013,0.26841
-0.20279,0.037995,-0.093233,-0.21164,-0.2974,0.88762,0.23545,0.18235
-0.25742,-0.082246,-0.078279,-0.19944,-0.1503,0.3447,-0.15061,0.21744
-0.25864,0.10452,-0.061189,-0.20615,-0.020905,-0.27665,0.18021,0.24186
-0.14023,0.049897,-0.030671,-0.099947,0.19303,-0.64714,0.47807,0.20859
-0.0972,0.035248,-0.050202,-0.090791,0.43381,-1.4745,-0.027619,0.033417
-0.0074769,-0.089876,0.014801,-0.078279,-0.0074769,-0.29557,0.16098,0.032197
0.033112,-0.070344,-0.0080873,-0.08835,-0.1323,0.79545,0.13046,0.07187
0.019074,-0.066072,-0.039826,-0.075227,-0.0010681,0.42374,-0.10025,0.013581
0.073701,-0.16403,-0.010834,-0.066682,-0.077974,0.35691,0.59678,0.022736
0.084077,-0.1088,-0.010834,-0.056611,-0.066987,0.28305,0.65599,-0.018769
0.031281,-0.024567,-0.048676,-0.087129,-0.016632,-0.3798,0.29343,-0.10117
0.031281,-0.03769,-0.058442,-0.085908,-0.073701,-0.056001,-0.24125,-0.14633
0.0090028,-0.056916,-0.054475,-0.11521,0.081636,-0.28336,-1.1928,-0.31205
-0.029755,-0.023651,-0.090791,-0.066987,0.16251,-0.55924,-0.72587,-0.21012
-0.00076295,-0.090486,-0.06424,0.12039,-0.13016,0.42069,0.65782,0.038911
0.066682,-0.12406,-0.10605,0.18173,-0.14878,0.20798,0.70756,0.081941
0.016938,0.093538,-0.22049,0.06363,-0.018463,0.043183,0.11795,-0.0019837
-0.0010681,0.13626,-0.074006,-0.47562,0.15305,-0.0080873,0.14694,-0.031586
-0.0053407,-0.0035096,-0.063325,-0.065766,0.54124,-0.1677,-1.0979,-0.099641
-0.018463,-0.061494,0.0044251,-0.34043,-0.077974,-0.037079,-1.0915,-0.064851
-0.041352,-0.066377,0.022431,0.034638,-0.41154,0.2797,0.4097,0.035554
-0.0096132,-0.25559,-0.061189,0.087739,0.19303,0.14481,0.38346,0.12375
0.025788,-0.15579,-0.089265,-0.20584,0.0041199,-0.1088,0.081331,0.062104
-0.041657,0.0013733,-0.026093,-0.2797,-0.15549,0.022126,0.29007,0.02182
-0.066682,0.015412,-0.025788,-0.33585,0.026093,-0.0032044,0.7039,0.066682
-0.018463,-0.0086976,-0.013581,0.46555,0.0016785,0.13779,1.1067,0.12314
-0.07126,-0.0056458,-0.02182,0.067903,0.070344,0.74968,0.77195,-0.097505
-0.051423,-0.086824,0.040436,-0.34989,0.060578,0.33524,-0.40635,-0.084382
0.027924,-0.21958,-0.04654,0.070649,0.034028,-0.12833,-1.7366,-0.032807
0.096284,-0.17044,-0.11093,0.32456,0.12863,-0.58885,-0.78111,-0.024262
0.056306,0.05539,-0.10483,0.00045777,0.16648,-1.6466,-0.54795,-0.028229
-0.048371,0.14176,-0.12497,-0.38468,0.13474,-0.51621,-0.094453,-0.041657
-0.059358,0.13138,-0.13474,-0.262,0.012665,0.57176,0.53635,0.054475
-0.049897,-0.022126,-0.055695,-0.061799,-0.042573,0.20188,0.32059,0.094148
-0.11612,0.060273,-0.13107,-0.04715,-0.03769,0.20157,0.51011,0.10819
-0.13657,0.04654,-0.024262,-0.11582,-0.16281,0.25223,0.47227,0.075227
-0.12222,0.010529,-0.082551,-0.12039,-0.327,0.14603,-0.30503,0.053864
-0.12253,-0.005951,-0.084688,-0.19516,-0.13107,0.044099,-0.33249,0.041047
-0.088045,-0.10575,-0.027924,-0.087129,0.14725,0.043488,0.39078,0.070649
-0.024262,-0.29068,0.0206,0.049592,0.082551,0.056611,0.34592,0.11093
-0.032502,-0.23575,-0.038911,-0.09659,0.103,0.2153,0.38132,0.091707
-0.035859,-0.023346,-0.028534,-0.13687,-0.071565,0.3032,0.46647,0.043183
0.034333,0.031586,0.075227,-0.077058,-0.41276,0.1268,0.12436,0.021515
0.087434,0.0016785,0.0041199,0.033112,-0.22141,0.27695,-0.049287,-0.012665
0.065766,-0.097505,-0.092317,0.043488,0.262,0.50004,0.069429,-0.069429
0.079194,0.095369,-0.10269,-0.027314,0.57084,0.41306,-0.25376,-0.081331
-0.026398,-0.047456,-0.11246,-0.050507,0.048066,0.18814,-0.3444,-0.081636
-0.14878,-0.12345,-0.082856,-0.32181,-0.0047303,-1.035,-0.54582,-0.067292
-0.19303,-0.0019837,-0.082246,-0.027619,0.065766,-1.7201,-0.87297,-0.015412
-0.13626,0.043488,-0.092927,0.04715,-0.095369,0.43595,-0.30686,0.061799
-0.13993,0.11368,-0.11887,-0.065461,-0.048981,0.06424,0.21958,0.063935
-0.1146,0.087434,-0.14481,-0.17563,-0.12436,-0.20401,0.74449,0.016938
-0.061494,0.048676,-0.078889,-0.19547,-0.099031,0.4271,0.78202,0.005951
-0.048676,0.05539,-0.05417,-0.11643,0.26322,-0.11948,0.26322,-0.015717
-0.016327,-0.014496,-0.0083925,-0.036469,0.092622,0.1265,0.092012,0.028229
0.03006,-0.050813,-0.0038148,-0.24186,-0.11795,0.44602,-0.036774,0.041352
0.083467,-0.18204,0.049592,0.17929,0.085603,0.052644,-0.90318,0.016022
0.075532,-0.30289,0.009308,0.25772,-0.041352,0.070649,-0.64134,0.026703
0.090791,-0.16983,-0.042878,-0.32914,-0.035554,0.14267,0.60258,0.026703
0.103,-0.093538,-0.0206,-0.16464,0.074006,-0.032197,0.36667,-0.0086976
0.14328,-0.10452,-0.035554,-0.012055,0.044404,0.012665,0.077668,-0.045014
0.057832,-0.017548,-0.069429,0.045014,-0.022431,0.05539,-0.1973,-0.078889
-0.014191,0.025788,-0.073091,-0.14755,-0.015717,-0.063325,-0.61936,-0.092317
-0.044404,0.061189,-0.0972,-0.17716,0.050202,-0.034943,-0.2208,-0.065156
-0.013275,-0.035554,-0.10727,-0.094453,0.037995,0.25559,0.31052,-0.012665
0.045014,-0.034638,-0.11643,-0.073701,-0.025788,0.2092,0.085908,-0.059358
-0.079805,0.1326,-0.10483,-0.07248,-0.010529,0.074922,-0.35538,-0.20096
-0.099947,0.10269,-0.1268,-0.11063,-0.0383,-0.14359,-0.097505,-0.059358
-0.087434,-0.025483,-0.13138,-0.061799,0.0028992,-0.97154,0.017243,0.10605
-0.15274,0.015106,-0.031891,-0.12497,0.083772,-0.24857,0.41489,0.14511
-0.16434,-0.06424,-0.063935,-0.28641,-0.089876,0.6099,0.69932,0.21653
-0.15152,-0.12467,0.010224,-0.15305,-0.11124,0.4741,0.56107,0.23178
-0.11154,-0.036774,0.020294,0.10575,-0.075532,0.48295,0.26169,0.15274
-0.017548,-0.034028,0.00076295,0.11521,-0.099947,0.32181,-0.17929,0.052033
0.029145,-0.11276,-0.00045777,-0.02945,0.033417,0.074617,-0.58915,-0.084077
0.002594,-0.10544,0.03006,0.011139,0.20127,-0.052033,-0.57176,-0.13199
0.028229,-0.12345,-0.0038148,0.0056458,0.25834,-0.83116,-0.22934,-0.051728
0.099031,-0.19059,-0.052644,-0.027314,0.33158,-1.4916,-0.10513,0.0050355
0.11917,-0.17197,-0.093538,-0.1265,0.074006,-0.33005,0.25193,0.057527
0.064546,-0.060273,-0.13962,-0.20218,-0.057221,0.51621,0.010834,-0.035248
-0.10575,0.1622,-0.18204,-0.16342,-0.12619,0.36881,-0.099031,-0.034638
-0.11063,0.17075,-0.088655,-0.096895,-0.094759,0.22232,0.42741,0.1323
-0.099947,0.08072,-0.074922,-0.07126,-0.028229,0.12894,0.21103,0.11826
-0.10117,0.11368,-0.12711,-0.17014,-0.074922,0.042267,-0.04715,0.04593
-0.1973,0.22263,-0.064546,-0.14176,-0.096895,0.22568,0.052338,-0.030976
-0.11948,-0.00076295,-0.0053407,0.016938,-0.11032,0.486,0.23789,0.046235
-0.05478,-0.044404,-0.12741,0.015717,-0.25925,0.60227,0.28733,0.11368
-0.057221,-0.0022889,-0.067903,-0.1854,-0.12436,0.15091,0.070344,0.032197
0.056001,-0.19242,0.10239,-0.33921,-0.12192,-0.59922,-0.72801,0.043488
0.16312,-0.62242,0.14755,0.68894,0.23789,-0.71733,-0.40391,-0.070954
0.08011,-0.17227,-0.076448,0.18997,0.74388,-0.29984,0.80674,-0.086213
0.090486,-0.15183,-0.039826,-0.34379,0.1912,-0.15518,0.64897,0.031891
0.1384,-0.05417,-0.066987,-0.29862,0.069123,0.25956,-0.04593,-0.038605
0.092622,0.017853,-0.06302,-0.29099,0.087434,0.21408,-0.44938,-0.12863
0.0065614,0.065156,-0.062104,-0.11643,0.10422,0.043183,-1.4018,-0.18448
-0.056611,0.057527,-0.078279,-0.086824,-0.37736,0.12131,-0.49668,-0.10208
-0.10971,0.011139,-0.099031,0.034028,-0.3856,0.099641,0.24369,-0.023041
-0.12558,0.031281,-0.12436,0.02182,0.077974,0.14267,0.6981,0.025177
-0.11551,0.015106,-0.11551,-0.14511,-0.16342,-0.0074769,0.35111,0.031891
-0.11246,-0.018769,-0.103,-0.1149,0.15,-0.37644,0.15793,0.092927
-0.14389,-0.010224,-0.044709,-0.020905,0.057832,0.14084,0.851,0.18112
-0.11307,0.03006,-0.099031,0.027619,-0.013275,0.20554,0.88731,0.17136
-0.11002,0.093843,-0.12894,-0.18692,-0.086213,-0.015717,-0.18448,0.098421
-0.087739,0.081941,-0.07187,-0.048676,-0.31815,0.11643,-0.84459,-0.00076295
-0.027619,0.011444,-0.053864,-0.37644,-0.03769,0.29618,0.4387,0.012665
0.020294,-0.066682,0.0035096,-0.12894,0.19486,0.22538,0.023957,0.038911
0.033112,-0.11856,0.091096,0.06302,0.11673,-0.030365,-1.4217,-0.075532
0.022736,-0.121,0.022736,-0.034638,0.14298,-0.23331,-0.24369,-0.013275
0.053864,-0.10758,-0.064546,0.35691,0.22477,-0.96696,-0.014191,-0.051728
0.067903,-0.1387,0.051118,-0.37644,0.099336,0.11917,-0.47898,-0.12833
0.059358,-0.18479,-0.05417,0.12406,-0.14755,1.0082,0.67765,-0.12192
0.033417,-0.10697,-0.078889,-0.13138,-0.10483,0.66636,0.81346,-0.11948
-0.018463,-0.076448,-0.08835,-0.27726,-0.14145,0.41428,0.1973,-0.04654
-0.082856,-0.012055,-0.095064,0.11704,-0.049592,-0.57633,-0.46677,-0.013275
-0.0972,0.13046,-0.096284,-0.15518,0.46555,-2.1016,-0.54337,0.025483
-0.035248,0.070039,-0.13504,-0.070344,0.11978,-0.71916,0.014191,0.1268
-0.046845,0.049592,-0.15671,-0.13138,-0.23697,0.85008,0.54917,0.14328
-0.12161,0.082246,-0.095064,-0.16983,-0.069123,0.58457,0.69352,0.11063
-0.21897,0.20798,-0.089265,-0.12467,0.16251,0.48081,0.48325,0.082246
-0.12741,0.12741,-0.055085,-0.068818,0.17075,-0.096284,-0.56382,0.11704
-0.081636,-0.024567,-0.0065614,-0.13901,-0.11398,-0.22293,-1.4668,0.033722
-0.052644,-0.10391,0.0077821,-0.068513,-0.074922,0.23056,0.02182,0.043793
0.024872,-0.2388,0.041047,0.10788,-0.10758,0.44327,0.62547,0.15152
0.090791,-0.35416,-0.046235,-0.0074769,-0.061189,0.37675,0.37552,0.088655
0.13657,-0.20615,-0.03769,-0.12375,0.033112,0.094453,0.25956,0.0032044
0.09659,-0.19944,-0.01236,-0.060578,0.023651,0.089876,0.1854,-0.020905
0.08835,-0.12009,0.032807,-0.03769,0.019379,-0.30777,-0.079805,-0.055085
0.076448,-0.014801,-0.043183,-0.0972,0.13016,-0.96544,-0.62821,-0.12406
0.0053407,0.16037,-0.10513,-0.121,0.086824,0.13565,-0.32151,-0.14847
-0.069429,0.14969,-0.0972,-0.20371,-0.029145,0.56626,0.45335,-0.11948
-0.10941,0.045319,-0.16403,-0.14664,-0.061799,0.23148,0.39933,-0.029145
-0.11551,0.064546,-0.063325,-0.10391,-0.11246,0.21927,0.33616,0.068513
-0.12863,0.16587,-0.065766,-0.16373,-0.01236,-0.23453,0.17563,0.074311
-0.072175,-0.08896,-0.049897,0.33036,-0.043183,-0.18021,0.15946,0.092927
-0.028534,-0.13291,-0.17533,0.078279,-0.11795,0.46006,0.024262,0.092317
-0.052949,0.019074,-0.20096,-0.20523,0.0047303,0.091096,-0.33341,0.032807
0.026703,-0.068513,-0.103,-0.24552,0.053559,-0.17624,0.1207,0.086519
0.023346,-0.14755,0.048371,0.077363,0.30472,-0.7921,0.36912,0.036164
0.066377,-0.25284,0.06302,-0.096895,0.17472,-0.3624,0.13931,0.0041199
0.083467,-0.20035,0.10056,-0.19394,-0.19577,0.60777,-0.28214,0.0080873
0.026093,-0.025483,-0.024567,-0.045319,0.011444,0.1265,-0.61265,-0.14755
0.012665,0.064546,-0.0383,-0.0206,-0.036469,-0.015717,-0.63767,-0.22354
0.034943,-0.042878,-0.028229,0.03006,0.12436,-0.14359,-0.43137,-0.20249
-0.0062562,-0.049592,-0.032197,-0.019379,0.2501,-0.30167,0.15671,-0.2092
-0.090181,0.0065614,-0.077363,-0.10056,0.051423,0.10056,0.26139,-0.11582
-0.12619,-0.0383,-0.10147,-0.15183,0.0090028,0.2092,-0.39292,-0.014496
-0.099031,-0.13046,-0.063325,-0.13718,-0.10819,0.25345,-0.27939,0.095979
-0.14145,-0.086824,-0.085298,-0.094453,-0.051728,-0.041962,-0.26047,0.13535
-0.18906,0.088655,-0.11734,-0.026703,-0.16007,-0.53513,0.093843,0.19242
-0.15702,0.1445,-0.11826,-0.18021,-0.074006,0.31601,0.80064,0.26169
-0.095979,0.07126,-0.10819,-0.086824,-0.019684,0.59434,0.62608,0.21744
-0.067292,0.055085,-0.082246,0.048066,-0.075532,0.30716,0.37766,0.15427
-0.041657,0.11582,-0.034943,-0.22965,-0.059052,0.11643,0.24399,0.13077
0.02182,-0.00076295,-0.055085,-0.31235,-0.0032044,-0.94469,-0.25254,0.047761
0.081331,-0.070039,-0.034028,-0.1735,0.10636,-0.68406,-0.58885,-0.015412
0.061189,-0.14481,-0.002594,0.08072,0.24125,0.18997,-0.22873,-0.11368
-0.016327,-0.15335,0.0016785,0.02945,0.34592,0.09781,-0.019379,-0.11826
-0.016938,-0.13169,0.00076295,-0.038605,0.22721,0.21378,0.014801,0.0077821
-0.017548,-0.062715,-0.029755,-0.15183,0.016632,0.25681,0.19913,0.019684
0.027314,0.031891,-0.070954,-0.12955,-0.39811,0.15122,0.3621,-0.025177
0.035859,0.07126,-0.036469,0.064851,-0.42893,0.40024,0.83787,0.023346
0.028229,0.032197,-0.058137,0.069734,-0.28458,0.41459,0.79362,0.027619
0.036164,0.037079,-0.08835,-0.00045777,-0.15091,0.35843,0.22507,0.0077821
0.018769,-0.1445,-0.099336,-0.13474,-0.14847,-0.32212,-1.0851,-0.061494
0.084688,-0.3978,-0.11765,-0.058137,-0.027008,-1.1205,-1.5999,-0.066072
-0.068208,-0.086519,-0.082246,-0.17655,0.64744,-0.090791,0.37003,-0.061189
-0.20462,0.19913,-0.087434,-0.17868,0.19638,0.22568,0.50004,0.034028
-0.17838,0.090181,-0.051118,-0.041352,0.2327,-0.1326,0.074006,0.13443
-0.10819,0.017243,-0.11978,-0.026093,0.49729,-0.29679,0.14084,0.07187
-0.11154,0.07187,-0.099031,-0.06363,0.034028,0.4802,-0.23697,0.024872
-0.083467,0.019989,-0.081025,-0.035248,-0.11246,0.16587,-0.068818,0.0080873
0.015106,-0.31754,0.075227,-0.038605,-0.52476,-0.78416,0.051423,0.013275
0.081941,-0.28244,0.031586,-0.035554,-0.099031,0.15702,-0.46677,-0.0028992
0.068208,-0.13993,-0.077363,-0.084688,0.18479,0.23728,0.11765,0.019989
0.0041199,0.067597,-0.059358,-0.093538,-0.015412,0.19333,0.73991,0.0077821
0.019379,0.051423,-0.05417,-0.024262,0.052338,0.34226,0.52201,0.060578
0.019379,0.0071717,0.046845,-0.088655,-0.013581,0.29465,0.36423,0.011444
0.048371,-0.071565,0.0071717,-0.23758,0.035859,0.39078,0.098421,-0.14694
-0.011444,-0.020294,-0.059358,-0.1796,0.0080873,0.034638,-0.5214,-0.12528
-0.02945,-0.034028,-0.099641,-0.022126,-0.062104,-0.22721,-0.87114,-0.099336
-0.022126,-0.016632,-0.12741,-0.05417,-0.078889,0.12131,-0.60197,-0.02121
-0.044404,0.013581,-0.12345,-0.18204,0.023957,-0.67765,-0.53178,0.021515
-0.082246,0.048371,-0.11215,-0.1265,0.023041,-1.2859,-0.06302,-0.016327
-0.052644,-0.0044251,-0.13077,0.031891,-0.094759,0.42496,0.46647,0.099641
-0.066682,-0.0041199,-0.051728,0.011749,-0.046845,0.40757,0.41947,0.16403
-0.10941,0.026398,-0.088655,-0.43259,-0.092927,0.16556,0.56657,0.1442
-0.1091,-0.018463,-0.028534,0.21469,-0.0083925,0.10147,0.57633,0.19699
-0.034638,-0.12253,0.011444,0.51743,0.20188,0.01297,0.42466,0.19577
-0.019074,-0.062104,-0.032502,-0.25681,0.089265,0.060578,0.30686,0.056306
0.016022,0.0053407,-0.03006,-0.19944,0.21317,0.26871,0.80308,-0.035859
0.025177,-0.033722,-0.016632,-0.11978,0.045319,0.063325,0.32029,-0.18235
0.013886,-0.11154,0.016632,-0.12802,-0.1033,-0.1973,-1.0973,-0.32944
0.031891,-0.11887,-0.016022,0.035554,0.0010681,0.06302,-1.5566,-0.17197
0.048981,-0.085603,-0.042573,-0.15488,0.08072,0.18235,0.72892,-0.17502
-0.0071717,0.081636,-0.093233,-0.19821,0.0050355,0.060578,0.93858,-0.064546
-0.07187,0.049287,-0.083162,0.12528,0.010529,-0.098116,0.55222,0.041962
-0.083772,-0.00045777,-0.13626,-0.34165,0.05539,0.25071,0.91203,0.12894
-0.010224,-0.084382,-0.00076295,-0.03769,-0.17288,0.3743,0.80095,0.16464
-0.0041199,-0.087739,-0.13718,-0.074922,-0.11704,0.25681,-0.1677,0.0206
-0.084382,0.035248,-0.11673,-0.10575,-0.063325,0.11246,-1.6353,0.0096132
-0.15061,0.07187,-0.12894,-0.05478,0.035248,-1.1281,-0.74052,0.1091
-0.11612,0.025788,-0.056611,-0.069734,0.18204,-0.95964,-0.12131,0.18021
-0.099641,0.044099,-0.062409,-0.15885,0.11795,0.49729,-0.24979,0.10605
0.002594,-0.16739,-0.028229,0.042878,-0.079194,0.33982,0.47013,0.12039
0.0795,-0.43259,-0.015717,-0.057527,-0.1799,0.55314,1.1366,0.15488
0.093843,-0.35813,0.064546,-0.27573,-0.11429,0.42557,0.74235,0.0383
0.041657,-0.13413,-0.0080873,0.22873,-0.025483,0.25071,0.70939,-0.024872
-0.016938,0.1033,-0.056001,0.12528,0.10788,-0.04593,0.26658,-0.071565
-0.025483,0.27176,-0.026398,-0.26383,0.1207,-1.0237,-1.0893,-0.20127
0.0068666,0.15671,0.0016785,-0.12741,0.11673,-0.4976,-0.95232,-0.1857
0.062409,0.0071717,-0.056916,-0.042573,0.10605,0.7805,0.3682,-0.13077
0.011749,-0.07187,-0.10605,-0.11398,-0.091402,0.4329,-0.23667,-0.094453
-0.025788,-0.0065614,-0.0795,-0.14359,0.048371,-0.011749,0.13535,0.02182
-0.075227,-0.0062562,-0.10452,0.016022,0.17441,0.031586,-0.052949,0.02182
-0.10575,-0.09659,-0.078584,0.13138,-0.04593,-0.374,-1.1641,0.0074769
-0.103,-0.028229,-0.11826,-0.012665,0.078584,-1.0115,-0.60044,-0.0071717
-0.048676,0.079194,-0.15793,-0.16709,0.0206,-0.32303,-0.094453,0.031586
-0.075837,0.041352,-0.081941,-0.078279,0.014801,-0.081636,0.53635,0.041657
-0.018158,0.017548,-0.076753,-0.22293,-0.039216,0.45304,0.53208,0.073701
0.04715,-0.041962,0.0038148,0.0019837,-0.121,0.27146,0.33982,0.064546
0.095369,-0.1619,-0.025788,0.11093,-0.099031,0.2092,0.36118,-0.0062562
0.089265,-0.092927,-0.056306,-0.32792,0.045319,0.27878,-0.14237,-0.052949
0.005951,-0.017548,-0.064851,-0.21958,0.04715,0.2742,-0.35538,0.0035096
-0.082856,0.0065614,0.024262,0.077363,-0.068513,0.37736,0.081331,0.068208
-0.084382,-0.032502,0.013581,0.059968,-0.1323,-0.48814,0.47623,0.15122
-0.038605,-0.18997,-0.018158,-0.1915,0.016632,-0.59373,0.68711,0.059358
-0.020294,-0.18967,0.00045777,-0.19211,0.39353,0.16159,-0.1857,-0.044404
-0.11215,-0.095674,-0.0080873,-0.10178,0.15915,0.15091,-0.43076,0.012665
-0.17227,-0.0099184,-0.14389,0.10727,-0.0972,0.32639,0.40391,0.086824
-0.15305,0.12222,-0.13321,-0.1796,0.16129,-0.0038148,0.45335,0.10666
-0.10697,0.0074769,-0.093538,-0.16922,-0.053559,-0.58671,-0.21653,0.037079
-0.058137,-0.038911,-0.085298,0.015412,-0.29557,-0.40757,-0.29007,-0.0035096
-0.054475,0.0022889,-0.090181,0.039521,-0.12985,0.8278,0.44419,0.028229
-0.070649,0.049592,-0.11643,-0.1088,-0.0041199,0.52628,-0.3978,0.0050355
-0.063325,0.070649,-0.1088,-0.16281,-0.069123,0.46189,-0.20218,0.039521
-0.012665,0.033112,-0.059968,-0.095369,-0.053864,0.66453,0.34195,0.094759
-0.030671,0.022126,-0.020294,-0.028229,0.0086976,0.082246,-0.80613,0.068208
-0.019379,0.043793,-0.048676,0.0019837,0.24887,-1.3921,-0.77745,0.019989
0.034943,-0.082856,0.00045777,0.0028992,0.35355,-0.59709,0.36332,0.058442
0.019074,-0.05417,-0.025483,0.05539,0.074006,0.60838,0.28275,-0.022736
0.016022,-0.088655,-0.074006,-0.29984,-0.27543,-0.044099,-0.040742,-0.073091
0.031281,-0.069734,-0.103,-0.49363,-0.51194,0.016632,0.012055,-0.041047
0.044404,-0.17227,0.086519,-0.065766,0.11429,0.14786,0.28611,-0.081331
0.03769,-0.24186,-0.015412,0.11337,0.025788,0.14878,0.41672,-0.075227
0.067903,-0.099336,-0.027619,-0.019684,0.052033,0.13687,0.23789,-0.0028992
0.078584,-0.090486,-0.019684,-0.0065614,0.083772,0.094759,-0.24643,-0.030671
0.065461,-0.039826,-0.12955,-0.060578,0.11612,-0.072175,-0.8275,-0.13687
-0.013275,0.041962,-0.18692,-0.12284,0.14633,-0.058442,-0.34257,-0.053559
-0.042878,0.025177,-0.10361,0.059663,0.015106,-0.056611,-0.013275,-0.029145
-0.039826,0.048676,-0.032197,-0.16007,0.031281,-0.1207,-0.4802,-0.038911
-0.099336,0.13352,-0.081941,-0.28702,-0.010834,0.035248,-0.02945,0.015412
-0.084077,0.074311,-0.027619,-0.031586,-0.26932,0.15091,0.41764,0.074617
-0.057221,-0.059358,0.019379,0.13382,-0.067292,0.0086976,0.2562,0.072175
0.015106,-0.24247,-0.036774,0.1088,0.10971,0.034333,0.24735,0.034333
0.02945,-0.21805,-0.086519,0.032502,0.055085,0.062715,0.26139,0.047456
0.0096132,-0.040131,-0.11246,-0.17472,0.11154,0.060883,0.25376,0.043793
-0.0050355,-0.039521,0.013886,-0.19059,0.077974,0.21225,0.23392,0.015717
-0.059358,-0.0096132,-0.0056458,-0.12375,0.005951,0.24552,-0.24186,0.061799
-0.059052,-0.061799,-0.024567,-0.073701,-0.028229,0.21317,-0.23117,0.11704
-0.07187,0.015717,-0.02884,-0.032197,-0.063935,0.14755,0.62303,0.12039
-0.06302,-0.21866,-0.03006,0.049287,-0.10361,-0.6978,0.29831,0.052033
-0.074617,-0.068513,-0.041047,0.0065614,-0.061494,-0.19242,0.8632,0.024262
-0.083162,0.090486,-0.054475,-0.31998,0.045624,0.6511,1.3436,0.041047
-0.07187,0.047456,-0.121,-0.26291,0.12985,0.099336,0.3386,-0.077363
-0.091402,0.084077,-0.1445,-0.040131,0.32273,-0.26322,-1.0857,-0.22934
-0.072786,0.12528,-0.15183,-0.075532,0.28214,-0.82963,-2.0317,-0.11032
-0.070039,0.075837,-0.083467,-0.076753,0.16953,-0.78538,-0.024567,0.034028
-0.073396,0.11917,-0.13504,-0.083467,-0.20096,0.29709,0.1796,0.083772
-0.065766,0.090181,-0.13046,-0.11246,-0.2211,0.2385,0.43351,0.068513
-0.0074769,-0.12345,-0.028229,-0.059663,-0.039521,0.10239,0.3447,0.016632
0.049287,-0.20462,-0.0090028,0.050813,-0.010529,0.30289,-0.15396,-0.0056458
0.099947,-0.19028,0.017243,-0.1207,-0.040742,0.09659,-0.18021,-0.019379
0.12528,-0.15152,0.035859,-0.53605,-0.057527,-0.10361,0.016022,-0.043793
0.082246,-0.11368,-0.0028992,0.33494,0.064546,-0.047456,0.098726,-0.060883
0.027924,-0.0206,-0.029145,0.40635,0.14939,0.037385,0.23392,-0.066072
0.03769,0.005951,-0.0383,-0.18723,-0.14786,0.14817,0.29892,-0.051728
-0.057832,-0.00076295,-0.021515,-0.13291,-0.061189,0.057527,0.088655,-0.020294
-0.062104,-0.066377,-0.052033,0.027924,0.14878,0.0065614,-0.17258,0.069123
-0.070954,-0.015717,-0.067292,-0.048371,0.059968,0.13596,-0.034333,0.17655
-0.12772,0.12406,-0.062104,-0.28641,-0.083162,0.20829,0.26963,0.168
-0.1265,0.043183,-0.11032,-0.24033,-0.04593,0.21103,0.53178,0.1854
-0.11063,0.0071717,-0.10117,-0.085298,0.047761,0.16831,0.69657,0.24308
-0.049897,-0.017548,-0.16678,-0.12436,0.057527,-0.34226,0.04593,0.066377
-0.044709,-0.070649,-0.095064,-0.088655,-0.16403,0.074311,-0.37827,-0.11521
-0.039826,-0.27176,-0.069429,-0.023651,-0.16342,0.78264,-0.37613,-0.18235
-0.061494,-0.00015259,-0.14725,-0.17288,-0.041962,-0.1384,-0.76768,-0.10819
-0.0019837,0.0065614,-0.0083925,0.12589,-0.065766,0.27634,-0.034943,0.053864
0.041657,-0.088655,0.0016785,-0.24125,0.011444,-0.82109,-0.48936,0.061799
0.053254,-0.17838,-0.057832,0.17807,0.070649,-1.8419,-0.6746,-0.0050355
0.064546,-0.090486,0.068818,-0.013581,0.034028,0.34653,0.17227,-0.017548
0.084688,-0.14694,0.059663,0.18723,0.091707,0.68345,0.40696,-0.069734
0.067597,-0.04654,-0.034028,-0.22354,0.41062,0.045624,0.36728,-0.16495
-0.025788,0.031586,-0.060273,-0.11856,0.24125,0.087129,-0.0028992,-0.077668
-0.073091,0.023651,-0.073396,-0.02121,-0.2327,0.13199,-0.38224,-0.030976
-0.052949,0.017853,-0.066987,-0.073396,0.30137,-0.25132,0.51621,0.0028992
0.00045777,-0.0019837,-0.057832,-0.10147,0.31846,-0.0050355,0.73899,0.025483
-0.014496,0.00045777,-0.052033,-0.079805,0.039216,0.069734,0.059968,-0.045624
0.039826,-0.10666,-0.10544,-0.18936,0.092012,0.0083925,-1.3079,-0.10605
-0.052949,0.043793,-0.1268,-0.37949,-0.27726,0.43168,-0.38376,-0.014191
-0.0972,0.089265,-0.13077,-0.3267,-0.87694,0.6807,0.98711,0.093538
-0.062715,0.0041199,-0.075227,0.43046,-0.62089,0.60288,0.19455,0.09781
-0.11582,-0.01236,-0.044404,0.025483,0.13443,0.32609,-0.25132,0.035554
-0.20676,0.047761,-0.044099,-0.21714,0.5684,-0.42649,0.1503,0.060273
-0.15213,-0.052644,-0.032807,-0.046235,-0.12039,-1.6747,-0.051423,0.1564
-0.051728,-0.103,-0.027924,-0.034943,-0.0080873,-0.64927,0.15305,0.18265
-0.051423,0.049897,-0.058747,-0.13107,0.10452,0.26169,-0.32822,0.049897
-0.025177,0.089265,-0.099641,-0.12131,0.019684,-0.10575,-1.3243,-0.017243
-0.02945,0.024262,-0.022126,-0.072175,0.028229,0.37675,0.38102,0.07126
-0.01236,-0.096895,0.0041199,0.13687,0.033417,0.41306,0.99657,0.1088
0.018769,-0.092012,-0.042573,-0.25986,0.076143,0.11795,0.076448,0.062409
0.043183,-0.17197,0.061799,-0.16251,0.1149,0.082551,-0.5037,-0.050507
0.043488,-0.14054,-0.0041199,-0.15396,0.095674,-0.070039,-0.45121,-0.15854
0.016938,-0.121,-0.070954,-0.099336,0.11704,-0.36606,-0.12772,-0.18601
0.0050355,-0.045319,-0.10544,0.050813,0.03769,0.21012,0.15488,-0.065766
-0.049592,-0.0062562,-0.11429,-0.10575,0.0074769,0.33463,0.22721,-0.022736
-0.076143,-0.11002,-0.059968,-0.18784,-0.049287,0.23026,0.35233,-0.027008
-0.028534,-0.14755,-0.11948,0.14542,-0.53788,0.1326,0.17105,0.017548
0.05417,0.022126,-0.1677,-0.18265,0.033417,0.17441,-0.052033,0.018769
0.0028992,0.055085,-0.064851,-0.1735,0.28092,-0.59739,-0.62638,-0.043183
-0.0065614,0.11063,-0.068208,-0.039216,0.02884,-0.86534,-0.68467,-0.00045777
-0.016327,-0.0053407,-0.024567,0.18418,0.084077,0.27695,0.16434,0.15335
-0.0062562,-0.050813,-0.11734,0.1564,-0.23362,0.40787,0.46769,0.20584
0.031586,-0.082856,0.0047303,-0.082551,-0.070954,0.2501,0.33463,0.1265
0.013275,-0.12833,0.041657,-0.16709,-0.058747,0.2565,0.38254,0.052338
0.012665,-0.15366,-0.012055,-0.14267,0.43748,0.12253,0.43015,0.021515
0.0038148,-0.09659,-0.017548,-0.10269,0.37736,-0.023957,0.27848,0.0010681
-0.010834,0.053254,-0.043793,-0.057527,-0.10727,-0.0050355,-0.0068666,-0.098116
-0.052644,0.092622,-0.025483,-0.028534,0.012055,-0.28977,-0.14023,-0.16861
-0.075532,-0.041962,-0.072175,-0.1091,-0.0022889,-0.34195,-0.6038,-0.10697
-0.084382,-0.026398,-0.092927,-0.17502,-0.12955,0.33402,0.43076,0.031281
-0.08835,-0.045319,-0.095064,-0.076753,-0.081025,0.2327,1.191,0.060273
-0.083467,0.0080873,-0.11826,-0.068208,-0.0206,0.048371,0.65476,0.049592
-0.12741,0.039216,-0.13474,-0.15396,0.010529,-0.22965,-0.5568,-0.037079
-0.20829,0.21805,-0.15305,-0.23301,0.029145,-0.28916,-2.0323,-0.081331
-0.18875,0.27787,-0.13138,-0.15549,-0.092012,-0.10391,-1.1394,0.083772
-0.070649,0.018158,-0.066987,-0.098726,-0.215,0.050507,-0.0010681,0.21958
-0.10788,-0.068208,-0.011444,-0.018463,-0.1326,0.071565,0.32914,0.18326
-0.042573,-0.11185,0.044709,-0.075837,-0.042878,0.084993,-0.1912,0.086824
0.16251,-0.35111,0.079805,0.19181,0.29313,-0.011139,-0.38712,0.0068666
0.2678,-0.49424,0.042267,0.25589,0.42039,-0.049897,0.16617,-0.099031
0.13077,-0.06363,-0.058442,-0.22873,0.029755,0.017853,0.11826,-0.1622
0.041352,0.10208,-0.03006,-0.20951,0.065766,-0.019074,0.091707,-0.12314
0.0050355,0.047456,-0.019074,-0.052949,0.016632,0.036164,0.0383,-0.039521
-0.035554,-0.0016785,-0.019684,-0.050507,-0.054475,0.016632,-0.039826,-0.042573
-0.015106,-0.040742,-0.092927,-0.0013733,-0.044709,0.12741,0.38346,0.0071717
-0.027619,-0.070954,-0.10941,-0.061799,-0.041047,0.21775,0.17502,-0.073396
-0.024872,-0.086519,-0.084382,-0.24979,-0.026398,0.078584,-0.31724,-0.15457
-0.043488,-0.056611,-0.11093,-0.07248,0.0032044,0.0032044,-0.098421,-0.074617
-0.0074769,-0.072175,-0.11551,-0.14572,0.030365,-0.49302,0.10422,0.010529
-0.11124,0.094453,-0.14176,-0.056611,-0.029145,-0.46433,0.28458,0.061189
-0.10819,0.027924,-0.12619,-0.11154,-0.11215,0.28611,0.53513,0.19089
-0.1146,0.0065614,-0.1149,-0.069734,-0.074922,0.24033,0.60533,0.25376
-0.10208,0.068208,-0.11429,0.011139,-0.076143,0.096895,0.45121,0.12161
-0.0013733,0.044709,-0.037995,-0.16983,-0.025483,-0.0795,-0.31662,0.031281
0.023346,-0.072786,0.021515,-0.10269,0.019684,-0.092012,-0.50278,-0.013275
0.043488,-0.16007,0.098116,-0.0019837,-0.025788,0.10727,0.38621,0.031586
-0.02945,-0.11978,-0.005951,-0.10239,0.046235,0.061494,0.0032044,0.016022
-0.064546,-0.074617,0.0099184,-0.16464,0.10605,0.15,0.0038148,-0.0053407
0.011139,-0.098726,-0.016327,-0.15396,0.24399,0.028534,-0.46189,0.011444
0.0053407,-0.048066,-0.026703,-0.060273,0.15396,-0.1912,-0.4979,-0.054475
-0.0013733,-0.052033,-0.029145,0.08011,-0.2266,0.074922,-0.20401,-0.059358
0.045014,-0.13596,-0.0795,0.21408,-0.11826,0.10941,0.11826,-0.094148
0.020905,-0.070039,-0.080415,-0.066987,0.13474,-0.090791,-0.18662,-0.1912
-0.062715,0.04654,-0.13291,-0.23758,0.11246,-0.084382,-0.19455,-0.10636
-0.083467,0.12955,-0.16159,-0.2501,0.002594,-0.037079,0.14054,0.065156
-0.11429,0.093233,-0.095369,-0.12589,-0.053254,-0.039521,-0.28367,0.016022
-0.10208,0.059358,-0.11246,-0.10513,-0.0383,0.002594,0.022736,0.13016
-0.11032,0.081636,-0.092622,-0.11276,-0.049897,0.073701,0.4097,0.23301
-0.057832,0.027619,-0.099641,-0.032197,-0.095979,0.16526,0.51194,0.24765
0.0056458,-0.13474,-0.018463,0.0028992,-0.08072,0.10727,0.47379,0.18235
0.027924,-0.21042,-0.0206,-0.026703,-0.056611,0.019074,0.51408,0.070039
0.090791,-0.2034,-0.011749,-0.076753,-0.022736,0.030365,0.013275,-0.066072
0.079194,-0.12009,-0.011444,-0.00015259,0.092317,-0.13748,-0.62089,-0.19577
0.073701,-0.08072,0.031586,0.077668,0.10056,0.031281,0.024872,-0.16434
-0.0044251,-0.0041199,-0.0035096,-0.1033,0.059968,0.038911,-1.0851,-0.19852
-0.064851,0.014191,-0.017548,-0.04654,0.019989,0.0080873,-0.84245,-0.12711
-0.072175,-0.029755,-0.048371,-0.13901,-0.032807,0.23178,0.65507,0.034028
-0.067292,-0.045319,-0.072786,-0.58091,0.0035096,-0.0035096,0.26963,0.06363
-0.10361,-0.023346,-0.087129,0.36088,0.10239,-0.84092,-0.52934,0.031586
-0.096284,-0.046235,-0.039216,0.010834,0.1796,-0.31693,0.17014,0.074617
-0.091707,0.049287,-0.1088,0.005951,0.056306,0.44114,0.56931,0.10697
-0.11215,0.12009,-0.1387,-0.21103,0.04593,0.12467,0.023957,0.088045
-0.087739,0.1503,-0.10513,-0.4802,-0.067292,0.13596,0.53635,0.14328
-0.04654,0.056001,-0.083162,-0.19059,-0.14328,0.22843,-0.021515,0.06363
-0.0065614,0.075227,-0.13077,-0.18479,-0.26261,0.27481,-0.27543,0.045624
0.087434,-0.14542,-0.035554,0.11429,-0.04654,-0.35935,0.12863,0.10483
0.099641,-0.36027,-0.014496,0.23239,0.13718,-0.3151,0.49149,0.049287
0.0028992,-0.091707,-0.082856,-0.41764,0.10056,0.29282,0.12619,-0.086213
0.027619,-0.084077,0.0035096,0.41306,-0.019074,0.47013,-0.66575,-0.094453
0.025788,-0.12497,-0.038605,-0.33219,0.090486,0.13138,-0.21683,-0.14939
0.040131,-0.0019837,0.0022889,-0.029145,0.059358,-0.21927,0.0056458,-0.081025
-0.016632,-0.032807,-0.0022889,0.24674,0.14603,-1.0878,-1.1925,-0.083162
-0.059663,-0.041962,-0.023957,-0.14908,0.27207,-0.21805,-0.8101,-0.058747
-0.015106,-0.084688,0.0038148,0.078279,-0.070039,0.63035,0.75181,0.0206
-0.095979,-0.034028,-0.084077,0.063325,-0.2855,0.54978,0.85832,-0.025483
-0.090791,-0.16892,-0.13779,-0.27298,-0.12741,0.50126,0.78233,0.067597
-0.10575,0.027924,-0.095064,-0.46433,0.010529,0.29587,0.56229,0.046235
-0.11551,0.074006,-0.1033,-0.052644,-0.11612,-0.60899,-0.47959,-0.073396
-0.076753,0.13321,-0.08896,-0.068208,-0.27146,-0.79881,-1.1171,0.013581
-0.089265,0.11582,-0.042267,-0.14939,-0.17594,0.66056,0.2327,0.12284
-0.06302,0.057527,-0.070954,-0.089265,0.13718,0.43107,0.50065,0.12619
0.037385,-0.048981,-0.13504,-0.16495,0.48631,-0.31296,0.39658,0.072175
0.0053407,-0.014496,-0.12833,-0.26017,0.55802,-1.5178,-0.29953,-0.074922
0.0099184,-0.095369,-0.042573,0.018769,0.33005,-0.60655,-1.1019,-0.06363
0.084077,-0.20493,-0.011444,0.030671,-0.1265,0.77073,-0.17594,0.0086976
0.095674,-0.27756,0.13046,0.13687,-0.37797,0.24887,0.37247,-0.063325
0.099641,-0.20981,-0.005951,0.090181,-0.21439,0.18173,0.18357,-0.061799
0.050507,0.017548,-0.072786,-0.098421,-0.0019837,0.20249,0.44938,0.046235
-0.02121,0.11154,-0.037079,-0.037079,-0.023041,0.14603,0.36454,0.013886
-0.043488,0.087129,-0.050507,-0.15671,0.031891,0.17899,-0.15,-0.020905
-0.026703,0.027619,-0.05478,-0.099641,0.13382,0.22812,-0.067292,0.0068666
-0.033722,0.002594,-0.075837,-0.08072,0.10666,0.19242,0.020294,0.029755
0.016632,-0.0053407,-0.028534,-0.28794,0.10086,0.11887,-0.059663,-0.0062562
-0.07187,-0.034943,-0.031586,0.073396,-0.35813,0.036774,-0.30808,-0.019379
-0.2034,0.038605,-0.13565,-0.15213,-0.45853,-0.5568,-0.19852,0.025788
-0.2385,0.053254,-0.12436,-0.20523,0.17136,-0.38895,0.15824,0.16098
-0.22629,0.040131,-0.13748,0.018769,0.061189,0.19638,0.17319,0.16434
-0.17899,0.095674,-0.074922,-0.051728,0.080415,0.10483,0.29526,0.15213
-0.14939,-0.023346,-0.10513,0.055085,0.098726,0.11978,0.23697,0.12863
-0.031281,-0.067597,-0.0972,-0.21958,-0.023651,0.11673,0.1149,0.090181
0.074617,-0.060883,-0.065156,-0.13993,-0.035554,0.040131,0.035859,0.051728
0.069429,0.060273,0.00045777,-0.11337,-0.02884,0.051728,-0.012665,-0.013275
0.090486,-0.23697,-0.032807,-0.052644,0.005951,0.078279,-0.049592,-0.037079
0.12619,-0.34379,0.01236,-0.023346,0.010834,0.08835,0.094453,-0.065461
0.12528,-0.19821,0.10208,0.070649,0.048371,0.027314,0.039216,-0.083467
0.13626,-0.28641,0.019684,0.009308,0.051118,0.025177,-0.044404,-0.053254
0.1387,-0.15488,-0.10758,-0.014801,0.016632,0.032807,0.036774,-0.0074769
0.041657,0.031891,-0.11948,-0.009308,-0.0083925,0.0013733,0.13931,-0.07126
-0.063325,0.094759,-0.074006,-0.22507,0.019989,-0.13443,0.0010681,-0.18173
-0.12985,0.12131,-0.10422,-0.25406,0.074311,-0.14023,-0.19699,-0.1738
-0.12924,0.074006,-0.10117,-0.11063,0.034028,-0.018769,-0.034638,-0.08957
-0.11826,0.052338,-0.0065614,0.023346,-0.02121,0.0083925,-0.023651,-0.076143
-0.12924,0.0041199,-0.075837,-0.042267,0.27115,-0.045319,-0.61723,-0.0010681
-0.12253,-0.016327,-0.10727,-0.12467,0.078279,0.028534,-0.53544,0.15152
-0.076143,-0.034028,-0.076753,-0.085908,-0.20676,0.058747,0.067292,0.1323
-0.047456,-0.018463,-0.067903,-0.063325,-0.052033,-0.11398,0.37339,0.14542
-0.13382,-0.051423,-0.083162,-0.081025,0.15274,-0.085603,0.13993,0.090181
-0.091707,-0.15702,-0.0068666,-0.18936,-0.15427,0.50797,0.39628,0.20127
-0.04593,-0.030365,0.035859,-0.012665,-0.11612,0.59983,0.70268,0.23575
-0.02121,0.12802,-0.11276,0.12741,-0.018769,0.2446,0.14878,0.076448
-0.010224,0.12955,-0.058137,0.023651,-0.0065614,-0.030976,-0.021515,0.014191
0.059052,-0.014496,0.034333,-0.083162,0.16617,-0.73014,-0.32578,-0.08957
0.121,-0.1268,-0.005951,-0.20188,0.23209,-1.1162,-1.3039,-0.18204
0.13169,-0.29679,-0.057221,-0.30411,-0.068818,-0.041047,-0.33646,-0.083162
0.043183,-0.22812,-0.068818,-0.1445,-0.18235,0.74388,0.89342,-0.0056458
0.052338,-0.10819,-0.056916,-0.014191,-0.0032044,0.37125,1.0622,0.051728
0.030365,-0.063935,-0.053864,0.10971,0.07187,0.069429,0.26017,-0.010834
0.055085,-0.07187,-0.072786,0.121,0.086213,-0.67552,-0.85466,-0.13596
-0.044404,0.20554,-0.15274,-0.15549,0.26749,-0.50065,-1.1522,-0.19242
-0.049897,0.090181,-0.078889,-0.17502,0.10208,-0.017243,-0.31601,-0.10391
-0.073701,0.026398,-0.12467,-0.16312,-0.13046,0.18723,0.31357,-0.015106
-0.10971,0.058747,-0.11215,-0.11307,-0.15183,0.26078,0.66117,0.035554
-0.072786,-0.0022889,-0.050813,-0.042267,-0.11582,0.1326,-0.14481,0.040436
-0.061189,-0.026398,-0.051118,-0.1857,-0.02945,-0.048981,-0.94133,-0.054475
-0.11215,0.0022889,-0.041047,-0.24186,0.023957,-0.093233,-0.88945,-0.077974
-0.083772,0.0041199,-0.0053407,0.0206,0.13443,-0.093538,-0.027314,0.12253
-0.12528,0.0096132,-0.034943,0.022126,0.082246,0.13199,0.39567,0.12863
-0.12802,-0.046845,-0.057221,-0.058442,-0.31357,0.29374,0.68833,0.1796
-0.048676,-0.13352,-0.034028,-0.21744,-0.2565,0.27359,0.67002,0.23117
0.031586,-0.20432,0.053559,-0.0795,-0.0086976,0.33036,0.51865,0.13931
0.098116,-0.23209,0.042573,0.18204,0.097505,0.4152,0.44236,0.016022
0.016022,-0.076753,-0.062715,0.0795,0.1857,-0.4387,0.14908,-0.11917
-0.044404,-0.027619,-0.066682,-0.070344,0.24979,-1.0994,-0.0795,-0.20645
-0.038911,-0.015717,-0.10117,-0.12345,0.12863,0.39841,0.13931,-0.10636
-0.048676,0.065766,-0.16342,-0.10758,0.10239,0.39841,-0.1619,0.0032044
-0.11337,0.16556,-0.12985,-0.12192,0.19944,0.15091,-1.1424,0.005951
-0.0972,0.11734,-0.10269,-0.065461,0.022736,0.41886,-0.96818,0.098421
-0.067597,0.034638,-0.098726,-0.20798,-0.055085,-0.00015259,0.5391,0.15671
-0.075227,-0.056306,-0.013581,-0.21103,-0.1146,-0.085298,0.58671,0.091707
0.013886,-0.18936,-0.020905,0.39689,-0.49973,-0.47593,0.074006,0.16434
0.011139,-0.058137,-0.13352,0.0050355,-0.1973,-0.93309,0.20157,0.13077
0.045014,0.0383,-0.11429,-0.49729,0.15396,0.46128,0.3566,0.0038148
0.046235,0.023957,-0.015717,-0.33921,0.15671,0.17411,0.7686,-0.10513
0.052949,-0.10178,0.036469,0.4329,-0.10178,0.13809,0.44297,-0.11826
0.07248,-0.13413,-0.01236,-0.35813,-0.10483,0.1033,-0.7335,-0.082856
0.062104,-0.1326,0.020294,-0.43259,-0.036774,0.10971,-1.1748,-0.098116
0.10269,-0.23239,0.041962,-0.082856,-0.057527,0.25956,-0.47745,-0.045014
0.10391,-0.24094,-0.015412,0.61936,-0.049287,0.17716,0.55802,-0.010224
0.032807,-0.082856,-0.11215,-0.27726,0.1146,0.00045777,0.50858,-0.032807
-0.03769,-0.032197,-0.030671,-0.08896,0.1442,-0.027924,0.28061,-0.015106
-0.088045,-0.027619,-0.092012,0.018769,0.34806,-0.019989,-0.0044251,-0.10513
-0.16983,0.02945,-0.15366,-0.1384,0.42679,-0.47837,-0.77012,-0.17075
-0.14878,0.040742,-0.13535,-0.36881,-0.14481,-0.1445,-0.52323,-0.0074769
-0.039826,-0.016938,-0.062409,0.37064,-0.13596,0.27054,-0.044709,0.033112
-0.097505,0.09659,-0.14908,-0.15518,0.0086976,0.31022,0.20523,-0.031281
-0.11215,0.11582,-0.11887,-0.18082,0.03006,0.25528,0.21744,0.038911
-0.12039,0.15213,-0.061799,-0.15732,0.15061,-0.39567,0.06424,0.080415
-0.11551,0.23575,-0.1091,-0.13138,-0.37766,-1.05,0.034333,0.090181
-0.11215,0.24796,-0.050507,-0.090486,-0.031281,0.13321,0.20462,0.14939
-0.10391,0.049897,0.032502,-0.14847,0.11704,0.38682,0.38346,0.19272
-0.073701,-0.14054,0.073091,-0.087129,-0.084993,0.17777,0.28855,0.20737
-0.024262,-0.48051,0.095369,0.12192,-0.078889,0.10391,0.16526,0.12619
0.027008,-0.52445,-0.0056458,0.36973,-0.12955,0.076448,0.032807,0.085908
0.041047,-0.14206,-0.050202,-0.41947,0.074617,0.29038,-0.31998,0.035248
-0.041657,0.033722,-0.0077821,-0.2916,0.07126,0.53422,0.28977,0.0206
-0.067903,0.04715,-0.07126,0.052644,0.040436,0.42496,0.5034,0.057221
-0.002594,0.084077,-0.2269,-0.07126,0.094759,0.29618,0.12436,0.043183
0.027619,0.1146,-0.19913,-0.092317,-0.024872,-0.30808,-0.22538,-0.019074
0.063325,0.0016785,-0.07126,-0.0044251,0.096284,-1.6075,-0.61906,-0.08957
0.099947,-0.11612,-0.053254,-0.19974,0.46677,-0.34623,-0.2742,-0.10452
0.086824,0.011444,-0.061799,-0.23514,0.14511,0.25132,-0.057221,-0.11124
0.03006,-0.18357,-0.011749,-0.079805,-0.051423,-0.019989,-0.026398,-0.14176
-0.031281,-0.1326,-0.053864,0.04654,-0.16739,0.21195,-0.013275,-0.09781
-0.029145,0.031586,-0.121,-0.074311,-0.14359,0.17777,0.022736,-0.013581
-0.0050355,0.077668,-0.040436,-0.1326,-0.060883,0.19394,0.20096,0.023041
-0.023041,0.069429,-0.005951,-0.058442,-0.14389,0.2446,0.11826,0.070344
-0.063935,-0.0019837,-0.0053407,0.17624,-0.17166,0.17899,0.1796,0.12009
-0.02945,-0.13626,-0.00015259,0.02945,-0.15946,0.11002,-0.0206,0.08072
-0.021515,-0.15,-0.0080873,-0.37186,0.050507,-0.085603,-0.16617,-0.031891
0.075837,-0.10666,-0.016632,-0.19791,0.18357,-0.069429,-0.17929,-0.086213
0.097505,-0.094148,0.026093,0.20554,0.1088,-0.14054,-0.32578,-0.15152
-0.016327,-0.027314,-0.064546,0.16037,0.096895,-0.13382,0.21866,-0.1445
-0.12009,0.093233,-0.15152,-0.30442,0.025177,0.031586,0.12222,-0.076143
-0.10544,0.11337,-0.15061,-0.22904,-0.036469,-0.041352,-0.21225,-0.0041199
-0.1564,0.057527,-0.070039,0.077058,0.083467,0.0022889,0.87572,0.064546
-0.18173,-0.013581,-0.10971,-0.1265,0.10636,0.22477,0.67552,0.067903
-0.11765,-0.094453,-0.040131,-0.20798,-0.12253,0.2855,-0.54368,0.15274
-0.08011,-0.090791,-0.082856,-0.076753,-0.23819,0.38773,-1.4592,0.1326
-0.10727,-0.018158,-0.0795,-0.10513,-0.01297,0.20554,0.027314,0.12619
-0.098116,0.038605,-0.086519,-0.14389,0.26291,-0.081941,0.64012,0.17899
-0.049592,-0.034638,-0.04654,-0.013581,-0.1323,0.06424,0.25223,0.11826
-0.014191,-0.082856,0.0016785,-0.016632,-0.085298,-0.99199,-0.36149,-0.018463
0.059052,-0.10758,-0.015412,0.0080873,0.22538,-1.0756,-0.36301,-0.018769
0.056611,-0.064851,-0.021515,-0.0068666,-0.14054,0.75395,-0.12619,-0.062104
0.074311,-0.040436,-0.057832,-0.30533,-0.33219,0.56077,-0.04715,-0.050813
0.098116,-0.090181,-0.058747,-0.16312,-0.27481,0.31113,0.8574,0.033417
0.11154,-0.06363,-0.048066,0.073701,0.67857,-0.48631,0.42802,-0.12131
0.095369,-0.066987,-0.015412,0.0010681,0.37736,-0.42222,-0.38895,-0.24949
0.065766,-0.066682,-0.037079,0.071565,-0.027314,0.40848,-1.1015,-0.20127
0.011139,-0.016632,-0.083467,-0.04715,0.022126,-0.10208,-0.39597,-0.078889
-0.075837,0.023651,-0.15,-0.18601,0.04715,-0.016938,0.55009,0.0013733
-0.095674,-0.0074769,-0.098726,-0.15305,0.12375,-0.10575,0.35203,0.03006
-0.1561,0.00045777,-0.087434,-0.11643,-0.035859,0.098726,0.6096,0.099947
-0.1033,-0.023651,-0.036469,-0.1268,-0.27634,0.76371,0.60716,0.16434
-0.081636,0.053559,-0.086519,-0.05417,-0.077363,0.74266,0.16617,0.10178
-0.045014,0.10361,-0.12253,0.035554,0.0050355,0.4271,-0.12345,0.13046
-0.0053407,0.10361,-0.044404,-0.29007,-0.12131,-0.2034,-0.97459,0.1503
-0.10575,0.10269,-0.023957,-0.17105,-0.038605,-1.5154,-0.31754,0.017853
-0.11917,-0.072786,0.0016785,0.027314,0.047456,-0.41825,0.79545,0.067903
-0.059663,-0.34073,0.10849,0.13687,0.098726,0.29953,0.81224,0.18235
-0.037079,-0.41642,-0.02182,0.063935,0.14389,-0.22141,-0.20249,0.10758
0.027314,-0.46464,-0.048371,-0.06302,0.066072,0.1326,-0.18692,0.053864
0.045014,-0.12558,-0.05478,-0.13169,0.009308,0.28061,0.38956,0.011444
-0.015412,0.089265,-0.052644,-0.10056,0.0016785,0.018463,-0.70909,-0.082246
-0.082856,0.19394,-0.035554,-0.059358,0.040436,-0.0074769,-0.77073,-0.13413
-0.068208,0.23972,-0.07248,-0.0795,0.070344,0.009308,0.28458,-0.11978
-0.061494,0.079805,-0.11765,-0.10483,0.091707,0.073091,-0.17044,-0.1265
-0.057527,0.071565,-0.11734,-0.12711,-0.04593,0.16129,-0.51621,-0.051728
-0.049592,-0.0062562,-0.077058,0.18601,-0.13626,0.028534,0.26383,0.046845
-0.02945,-0.069429,-0.11917,-0.26017,-0.052033,0.098726,0.37888,0.04715
0.026703,-0.1503,-0.086213,-0.22293,-0.084993,0.24826,0.16922,0.092927
0.056001,-0.086824,-0.07187,-0.13657,-0.1973,0.25406,0.11612,0.10086
0.037079,0.029755,-0.097505,-0.16587,-0.18631,0.3267,0.36637,0.085298
0.031891,0.049592,-0.16556,-0.11093,-0.013275,0.26383,0.65232,0.043793
-0.010834,0.11368,-0.024872,0.033112,0.40146,-0.094453,0.59556,-0.036469
-0.020294,0.013581,0.013581,0.12345,0.23941,-0.25132,-0.043793,-0.032502
0.00045777,0.063325,0.0053407,-0.030365,0.037079,-0.83177,-0.46799,-0.029755
0.05417,-0.066682,0.0032044,-0.099031,0.06363,-0.58762,-0.57755,-0.16373
0.0077821,-0.049592,0.017548,-0.091707,0.0028992,-0.068513,-0.50492,-0.18296
0.047761,-0.23545,-0.01236,-0.025177,-0.0080873,0.070344,-0.71824,-0.15854
0.057832,-0.421,0.025483,-0.065766,0.019684,0.14817,-0.42161,-0.11948
-0.043183,-0.1677,-0.046235,-0.14755,0.094453,0.103,0.40391,-0.12161
-0.10727,0.07248,-0.092927,-0.14359,0.0056458,0.17105,0.35935,-0.057527
-0.061799,0.070649,-0.10361,-0.019074,-0.13931,0.2443,0.35386,0.1149
-0.094148,0.13779,-0.14847,-0.083467,-0.081025,0.13993,0.14389,0.14237
-0.12222,0.1326,-0.076448,-0.073396,-0.0062562,0.05478,0.18173,0.10697
-0.090181,0.0019837,-0.10452,-0.077363,-0.05539,0.068208,0.43137,0.19242
-0.019074,-0.078279,-0.091096,-0.1207,-0.04715,-0.055085,0.26749,0.18143
-0.13931,0.10788,-0.1384,-0.17777,-0.031281,-0.14633,0.011139,0.081941
-0.22629,0.00015259,-0.059968,-0.043488,-0.032197,-0.04715,-0.28214,0.11185
-0.17441,-0.037995,-0.030976,-0.14603,0.19211,0.017243,-0.18814,0.28977
-0.049592,-0.099641,-0.022431,-0.12375,0.11154,0.36301,0.11002,0.30655
0.065461,0.02182,-0.072786,-0.060273,-0.067292,0.16098,0.25772,0.10697
0.06424,-0.024872,0.0062562,0.091402,0.12589,-0.087434,0.29374,-0.035554
0.031586,-0.17044,0.028534,0.035248,0.19303,0.036774,0.20127,-0.053864
0.080415,-0.14786,-0.030976,-0.10636,0.019074,-0.094453,-0.0071717,-0.057527
0.069734,-0.14878,0.023957,-0.30716,-0.50462,-0.27756,0.50431,-0.18601
0.05539,-0.16861,-0.031891,0.35843,-0.00076295,0.1915,0.41581,-0.29099
0.015412,-0.10391,-0.082246,-0.079805,0.1976,0.22416,-0.85161,-0.28367
-0.015106,-0.049897,-0.053864,-0.22019,-0.0062562,0.075532,-2.0711,-0.1387
0.0013733,-0.11826,-0.056001,-0.22202,0.027924,0.25864,-0.29129,0.048066
-0.0044251,-0.05539,-0.099031,-0.25132,0.032197,-0.089876,0.36423,0.10575
0.016022,0.0383,-0.17411,-0.10666,-0.041047,-1.3497,-0.43259,0.055085
-0.0028992,0.084688,-0.11643,0.069734,-0.31083,-0.42557,0.17685,0.10056
-0.024872,0.099336,-0.042573,0.035554,-0.11612,0.80003,0.69108,0.081331
-0.064546,0.086213,-0.098726,-0.23148,0.42161,0.23178,0.76341,0.050202
-0.047761,0.013886,-0.060578,-0.38804,0.31418,0.23117,0.54917,0.053254
-0.12619,-0.016327,-0.034638,0.3563,-0.025483,0.13382,-0.61875,-0.026398
-0.11521,-0.005951,-0.0080873,0.49271,-0.027314,-0.57755,-0.68406,0.052949
-0.022736,-0.069429,0.025483,-0.28611,-0.089876,-0.28519,0.80217,0.14511
0.041352,-0.17288,-0.02884,-0.26139,-0.034333,0.37675,0.75242,-0.0086976
0.051728,-0.19272,0.0038148,-0.086519,-0.024872,0.17807,-0.2089,-0.12772
0.0013733,-0.044404,-0.033722,-0.034333,0.069123,0.026093,-0.79423,-0.16281
-0.0013733,-0.057527,-0.05417,-0.041657,0.012665,0.0044251,0.083772,-0.093843
-0.064546,0.01236,-0.084993,-0.066987,0.0032044,0.082246,0.077363,-0.048371
-0.11032,0.032197,-0.074311,-0.168,0.0010681,0.59007,0.61448,-0.01297
-0.091096,-0.032807,-0.088045,0.060273,-0.088045,0.76127,0.77836,0.10269
0.0028992,-0.098116,-0.086824,0.30961,-0.28244,1.0582,0.55009,0.13107
-0.0010681,-0.044709,-0.10544,-0.46036,-0.022126,0.44907,-0.20096,-0.023651
-0.056916,0.1561,-0.1384,-0.53056,0.61082,-0.95842,-1.3216,-0.15427
-0.12436,0.27878,-0.072786,-0.091402,0.2623,-2.3137,-0.65324,-0.016632
-0.20066,0.15396,-0.016938,-0.094453,-0.18845,-0.27726,0.66819,0.16953
-0.13016,-0.0053407,-0.084688,-0.30533,-0.34348,1.1174,0.53666,0.2501
-0.0041199,-0.15549,-0.024872,0.038911,-0.27115,0.60288,-0.61234,0.11276
0.020905,-0.22538,-0.072786,0.0010681,-0.010224,0.56046,-0.18479,-0.030976
0.060273,-0.23423,-0.068513,0.11551,0.019379,-0.082246,0.63584,0.026093
0.055085,-0.10391,-0.0038148,-0.011139,0.38651,-1.0182,-0.47318,-0.026703
0.072786,-0.048371,-0.020294,0.046845,0.7332,-0.86107,-1.4827,-0.10788
0.057527,-0.025483,0.022736,-0.034943,0.0206,-0.43656,0.053254,-0.047456
0.0050355,-0.0086976,-0.036469,-0.063325,-0.28702,0.51316,0.56718,-0.0032044
0.0019837,-0.014496,-0.034943,-0.081025,-0.068818,0.5626,0.45121,0.019684
0.013581,-0.048371,-0.10056,-0.1735,-0.045624,0.51591,0.56931,0.053254
0.0080873,-0.023957,-0.067292,-0.11948,-0.19516,0.5861,0.5156,0.047456
0.0038148,-0.082856,-0.076448,-0.030976,-0.13657,0.24613,0.24186,0.031586
0.035859,-0.085908,-0.099641,0.029145,-0.061189,0.28977,0.1146,0.0068666
0.012665,0.0032044,-0.073396,-0.085298,0.017853,-0.37583,0.1976,-0.028534
-0.056611,-0.046845,-0.11093,-0.075227,0.098726,-0.85313,0.27878,-0.14328
-0.076753,-0.052033,-0.11551,-0.13443,0.11826,0.014496,-0.67155,-0.10788
-0.10697,0.050507,-0.099031,-0.18509,0.055085,-0.065461,-1.1321,0.017548
-0.095369,0.056001,-0.061189,-0.1912,-0.10483,-0.070344,-0.29953,0.095979
-0.077058,0.002594,-0.025483,-0.12314,-0.084077,-0.016938,-0.010529,0.11276
-0.050813,-0.062104,-0.018463,-0.085603,-0.032502,0.26596,0.39506,0.069429
0.012665,-0.20188,-0.00045777,-0.040131,-0.083467,0.43442,0.51865,0.040436
0.082246,-0.15183,0.0038148,0.049592,-0.065156,0.2092,0.49882,0.017853
0.035859,-0.11582,0.0041199,0.066987,0.084382,0.0972,0.31235,-0.009308
0.022736,-0.070344,-0.026398,0.090181,0.19699,-0.13413,0.037995,-0.0047303
-0.033112,0.034028,-0.030976,0.02121,0.098116,-0.36637,-0.76188,0.011444
-0.03769,0.085603,-0.035859,-0.073701,0.094759,-0.22416,-0.84947,-0.010834
-0.055695,-0.042878,-0.025788,-0.049287,-0.0074769,0.095979,0.39353,0.013581
-0.1091,-0.098116,-0.0972,-0.29435,-0.065766,0.13901,1.0521,-0.0206
-0.18509,0.092317,-0.12924,-0.16281,-0.024872,0.041047,0.28061,-0.11612
-0.15183,0.087739,-0.16342,-0.091707,-0.0035096,0.15274,-0.47929,-0.065156
-0.13382,0.036469,-0.11856,-0.19486,0.017548,0.262,-0.41245,0.035859
-0.16861,0.035554,-0.061189,-0.05478,-0.0019837,-0.28061,-1.0225,0.11276
-0.18601,0.048066,-0.10422,-0.0383,-0.0056458,-0.19944,-0.49943,0.095674
-0.16159,0.10544,-0.098116,-0.11948,-0.11978,0.54826,0.66575,0.17746
-0.055695,0.023957,-0.069123,-0.27817,-0.14206,-0.2797,0.42069,0.21347
0.048371,-0.082246,0.026703,-0.18997,-0.074922,-0.79301,0.62608,0.13382
0.16922,-0.12222,0.014191,0.002594,0.0047303,0.40574,0.50187,0.058442
0.1796,-0.098116,-0.026703,0.28031,0.42069,0.0972,-0.25193,-0.061189
0.18479,-0.064546,-0.043793,0.065461,0.16709,-0.28763,-0.024262,-0.052033
0.1326,-0.049897,-0.019074,-0.21164,-0.069123,0.21744,0.61051,-0.026398
0.065766,-0.13138,-0.032807,-0.011444,0.10391,0.068208,0.2678,-0.11765
0.084077,-0.22599,-0.049287,-0.012665,0.11246,0.027008,-0.48783,-0.17594
0.084382,-0.29099,0.032807,-0.068513,0.05417,-0.066072,-1.0695,-0.20951
0.0077821,-0.16861,-0.043793,-0.076448,0.021515,-0.20737,-1.6707,-0.24887
-0.069734,-0.058442,-0.10086,-0.077363,0.030976,-0.068208,0.064546,-0.13535
-0.10849,-0.009308,-0.075837,-0.078889,-0.032197,0.094759,0.69413,-0.04593
-0.17929,0.18112,-0.094759,-0.11124,-0.15457,0.19425,0.25925,0.055085
-0.13199,0.14603,-0.050202,-0.103,-0.2504,0.2266,0.67247,0.215
-0.060883,-0.17288,-0.056001,-0.16892,-0.44907,0.37705,0.86351,0.21378
-0.0383,-0.17075,-0.13138,0.014496,0.43687,0.38163,-0.11704,0.13474
-0.099031,0.21714,-0.15549,-0.2681,0.18814,0.41276,-0.93706,0.12375
-0.002594,0.1735,-0.066072,-0.16129,-0.16159,-0.15366,0.015412,0.12161
0.014191,0.019379,-0.069429,0.10636,-0.033722,-1.2544,-0.27695,0.10025
-0.0035096,-0.014801,-0.023957,-0.093538,0.13931,-1.0744,0.031281,0.06302
-0.019074,-0.059663,0.0035096,-0.27695,0.1445,0.33982,0.67796,0.07248
-0.035859,-0.11032,-0.077974,-0.073396,-0.073701,0.30716,0.45518,-0.035859
-0.009308,-0.076448,0.037385,-0.014801,-0.039521,0.26749,0.50767,-0.085298
-0.1033,-0.005951,0.065766,0.20005,0.14176,0.83574,0.5391,-0.12924
-0.17044,-0.040742,0.0077821,-0.1445,0.19577,0.51011,-0.46403,-0.16037
-0.103,-0.1146,-0.04593,-0.033417,0.065461,0.41978,-1.0893,-0.0065614
-0.11398,-0.029755,-0.13993,-0.056306,0.262,0.23758,-0.22812,0.044404
-0.018158,-0.12406,-0.099336,-0.065156,-0.064546,-1.1168,-0.56962,0.0080873
0.00045777,-0.028534,-0.10086,-0.088655,-0.34531,-1.6149,-0.21134,0.041047
-0.051423,0.02945,-0.12436,-0.089265,-0.13016,0.63493,0.29191,0.049592
-0.066072,-0.0068666,-0.17472,-0.12894,-0.16983,0.68833,0.26902,0.070039
0.059663,-0.059968,-0.093538,-0.10086,-0.11154,-0.028229,0.2443,0.082551
0.03006,0.065461,-0.11337,-0.099947,-0.12955,0.15915,0.26322,-0.045014
-0.014496,0.21561,-0.0795,-0.18082,-0.079805,0.3331,0.41184,-0.023651
0.012055,0.07187,-0.032197,-0.14603,-0.016327,0.08896,0.44511,0.019074
0.060273,-0.025483,0.0019837,0.015717,0.048371,-0.33158,0.34714,0.0047303
0.050507,-0.1088,-0.020294,-0.02121,0.1088,0.19425,0.24552,0.026703
0.025177,-0.29007,0.056001,-0.21103,0.11276,0.41855,0.076753,0.0065614
0.052033,-0.30442,0.053864,-0.091096,0.11063,0.20768,-0.095369,-0.055695
0.081941,-0.16403,-0.053254,0.43442,0.11765,0.21561,-0.62303,-0.075837
0.054475,-0.0028992,-0.07187,-0.20829,0.11948,-0.3328,-0.24491,-0.02884
-0.063325,0.083162,-0.012055,-0.11093,0.10971,-0.54948,-0.45975,-0.049287
-0.1268,0.0041199,-0.04593,-0.12345,0.10941,-0.7277,-0.15366,0.027314
-0.042573,-0.04654,-0.087434,-0.10758,-0.009308,0.0013733,0.41001,0.10758
-0.022126,0.050202,-0.15671,-0.37522,-0.19181,0.60746,0.24949,0.07187
-0.056001,0.070344,-0.10025,0.070039,-0.027008,-0.27085,-0.5803,-0.073396
0.034028,-0.215,-0.098726,-0.026093,0.034028,-0.42222,-0.68345,-0.043488
-0.066682,-0.062715,-0.10697,-0.046845,0.040436,0.34073,0.56748,0.0050355
-0.099336,-0.025788,-0.08896,0.039216,0.015717,0.24216,-0.12253,-0.043488
-0.12345,0.10544,-0.060883,0.086213,-0.0035096,0.070954,-0.82383,0.017243
-0.14603,0.14939,-0.065156,-0.087434,-0.10391,0.093843,0.33799,0.093843
-0.10056,0.085603,-0.076448,-0.28336,-0.057221,0.0044251,0.35264,0.16617
0.0068666,-0.034028,0.016632,-0.12375,0.22263,-0.19089,-0.069123,0.16007
0.0096132,0.076143,0.0044251,-0.17502,0.12863,0.031281,0.16129,0.082856
0.040131,0.018158,-0.082856,-0.49119,-0.051728,0.074922,0.2916,-0.023651
-0.032502,-0.071565,-0.023651,-0.085603,-0.094759,0.033112,0.2858,-0.029145
-0.02945,-0.16342,0.042573,0.54673,-0.016327,0.018158,0.22995,-0.070649
0.067292,-0.37858,0.059663,-0.1265,-0.15671,0.094453,0.23362,-0.054475
0.043488,-0.33494,-0.042573,-0.11154,-0.034638,0.025177,0.017853,-0.13474
0.064546,-0.29099,0.011444,0.1149,0.19669,-0.1326,-0.1564,-0.042573
0.047761,-0.31693,-0.12741,-0.14908,0.16922,-0.12741,-0.26383,-0.023041
-0.061494,0.15396,-0.14542,-0.14878,0.14115,-0.014801,-0.29282,-0.038911
-0.098421,0.30259,-0.16129,-0.11765,-0.047761,0.086519,0.065461,0.015106
-0.11643,0.23636,-0.16312,-0.083772,-0.085298,0.10544,0.19883,0.032807
-0.077668,0.1976,-0.14633,-0.21347,-0.052949,-0.016938,-0.025177,0.048066
-0.085908,0.074617,-0.086519,-0.15854,-0.14206,0.067597,0.0068666,0.051728
-0.16861,0.071565,-0.08011,-0.052949,-0.23728,0.37125,0.31022,0.082551
-0.10605,0.0099184,0.00076295,-0.024567,-0.076143,0.38743,0.59953,0.21073
-0.018463,-0.18448,0.096895,-0.0083925,0.04593,0.17319,0.60868,0.25498
0.02121,-0.16373,-0.0038148,-0.002594,0.27817,-0.25925,0.2089,0.15793
0.11276,-0.25864,0.005951,-0.013275,0.18692,-1.0283,-0.63035,0.06424
0.045624,-0.20768,-0.019684,-0.023041,0.1146,-0.74754,-0.8806,-0.11551
-0.018158,-0.02182,-0.03006,-0.012055,0.097505,0.18601,-0.40818,-0.099336
-0.043793,0.042267,-0.081331,-0.045624,-0.0010681,0.22141,-0.10452,-0.10391
-0.019684,0.073396,-0.063935,0.046845,-0.12711,0.22049,0.12314,-0.13779
-0.012055,-0.015717,-0.039826,-0.24186,-0.076143,0.36851,-0.18418,-0.10422
-0.0086976,-0.027619,-0.11032,-0.28855,0.10391,0.41703,-0.74357,-0.103
0.0047303,-0.01297,-0.11093,-0.2623,0.073396,0.095979,0.20157,-0.018769
0.0019837,0.0013733,-0.1265,0.21592,-0.20645,0.12284,0.44511,0.0074769
-0.064546,0.039826,-0.1207,-0.026093,-0.31174,-0.31571,0.37949,-0.030365
-0.074922,0.094453,-0.10147,-0.18936,-0.045014,0.079805,0.7924,0.041962
-0.057221,0.11521,-0.085298,-0.23239,-0.010224,0.59464,0.93187,0.10666
0.014191,-0.043793,-0.053864,-0.1857,-0.027314,0.037995,0.51408,0.074617
0.015412,-0.084077,-0.029145,-0.011139,0.4332,-0.90959,-0.76402,0.0206
-0.063935,-0.080415,-0.044404,0.05417,0.27939,-0.089876,-1.4104,-0.065461
-0.077363,-0.11368,0.018769,-0.03769,0.0065614,0.30259,-0.30014,-0.041047
-0.002594,-0.1738,-0.002594,-0.11704,0.036774,-0.78813,-0.25284,-0.016632
0.027619,-0.15244,-0.039826,-0.16526,-0.0080873,-1.0979,-0.42283,-0.077974
-0.009308,-0.029755,-0.056001,-0.15,-0.07187,0.44755,-0.5272,-0.082246
-0.030671,0.067597,-0.0083925,0.018463,-0.04654,0.36942,0.04715,0.0019837
-0.070954,-0.041352,-0.023957,-0.18112,0.0071717,0.45914,0.84733,0.15396
-0.059358,-0.12558,-0.012055,-0.010529,-0.22019,0.60044,0.55589,0.18235
-0.04654,-0.11429,0.018769,0.20768,-0.13474,0.3621,-0.11429,0.053864
-0.073396,-0.11093,-0.062715,0.262,0.31662,-0.59281,-0.15396,-0.041047
-0.06363,0.08835,-0.22049,0.070039,0.18448,-0.66148,0.13443,-0.072175
-0.052949,0.1033,-0.15671,-0.27909,0.24308,0.019989,0.14908,-0.064546
-0.053254,-0.020294,-0.10239,-0.20951,0.12009,0.2977,0.25528,0.013581
-0.025788,0.036469,-0.092927,-0.1149,-0.50187,0.33402,0.37858,0.17472
-0.056611,-0.041352,-0.02884,-0.15152,-0.083162,0.12772,0.1796,0.1561
-0.056916,0.0038148,-0.096895,-0.08835,-0.010224,-0.075532,0.25803,0.18021
-0.014496,0.064546,-0.11734,-0.14359,-0.010224,0.017243,0.19974,0.086824
-0.013581,0.13657,0.0062562,-0.19394,-0.0090028,0.20829,-0.30045,0.027314
0.0068666,-0.12284,-0.026093,-0.13169,-0.17716,0.35294,0.032807,-0.0013733
0.074311,-0.21225,-0.019684,0.040742,-0.10178,0.35874,0.44144,-0.085298
0.099031,-0.12222,0.0013733,0.067597,0.14237,0.15091,-0.13046,-0.14267
0.052033,-0.073396,-0.013581,-0.13779,0.082551,0.46311,-0.25895,-0.15183
-0.013581,0.044099,-0.038605,-0.13077,-0.035859,0.079805,-0.49027,-0.09781
-0.03769,0.039826,-0.012665,-0.034638,0.0028992,-1.3085,-0.43076,-0.10422
0.013275,-0.076143,-0.039826,-0.097505,0.21164,-0.82048,0.039521,-0.068818
0.027314,-0.095979,-0.076143,-0.15732,0.10025,0.36942,0.24308,-0.0053407
0.03769,-0.18967,-0.048066,-0.18021,0.081331,-0.48386,-0.0062562,0.0032044
-0.016632,-0.12161,-0.11643,-0.045624,-0.040436,-0.16464,0.31632,0.041352
-0.074922,-0.066682,-0.12314,0.005951,-0.14206,0.37461,0.3328,0.030365
-0.063325,-0.042573,-0.084382,0.0086976,-0.0050355,0.069429,-0.52995,0.043793
-0.13596,0.069123,-0.090791,0.002594,0.065461,0.14664,-0.40055,0.005951
-0.15244,0.06424,-0.034028,-0.083162,0.0065614,0.16983,0.5391,0.057832
-0.077363,0.067292,-0.084382,-0.20523,-0.037079,0.092927,0.065766,0.094453
-0.05478,-0.031586,-0.075227,-0.26291,-0.017548,-0.048981,-0.89158,0.038911
-0.078279,0.023651,-0.053254,-0.19089,-0.011139,-0.045319,-0.33677,0.002594
-0.053864,-0.0035096,-0.019684,0.10208,-0.059052,0.15366,0.1796,0.059663
-0.0090028,-0.10758,0.017243,0.17929,-0.027008,0.2797,0.48173,0.052338
0.02182,-0.05478,-0.051728,-0.043488,0.10636,0.15763,0.55406,-0.030365
0.013275,-0.10666,-0.056306,-0.085603,0.058442,0.087739,0.47715,-0.032807
0.023346,-0.10208,-0.048371,-0.1854,0.0795,-0.059052,0.089876,0.048371
0.037079,-0.025483,-0.016632,-0.11734,0.068513,0.11185,0.018158,0.053864
-0.015717,0.03769,-0.030671,-0.35355,-0.043183,0.38132,0.44724,-0.00076295
-0.035859,0.021515,-0.066987,-0.33402,-0.043183,-0.074006,0.27543,0.0035096
-0.039826,-0.058442,0.029755,0.79026,-0.049897,-0.76585,-0.75853,-0.026703
-0.085298,-0.12406,-0.11948,-0.18875,0.046235,-0.75853,-1.6643,-0.10544
-0.048676,-0.11002,-0.17807,-0.33249,0.041352,0.25284,-0.28367,0.040436
-0.063325,0.053254,-0.19791,-0.10727,0.0077821,0.22477,0.30228,0.092317
-0.092012,0.15518,-0.1146,-0.13687,0.057832,0.17838,0.66575,0.11582
-0.093538,0.10727,-0.095369,-0.1912,-0.041657,0.12284,0.52628,0.14084
-0.012055,-0.11948,-0.00045777,0.083467,-0.045014,-0.077058,-0.037385,0.098421
-0.0041199,-0.098726,0.026398,0.12528,0.067292,-0.033722,0.22477,0.059358
-0.016938,0.0010681,-0.025483,0.028534,0.02945,-0.040436,0.055085,-0.041352
-0.073701,0.014191,-0.02884,0.056001,-0.11032,-0.098116,-0.3154,-0.12467
-0.042878,-0.05539,-0.022431,-0.40024,-0.13993,0.34592,-0.25772,-0.04715
0.10697,-0.14298,-0.016938,-0.1854,-0.0080873,1.1254,0.063325,0.083467
0.11368,-0.12161,-0.036164,-0.089265,0.043488,1.0112,0.29038,-0.011444
0.048981,0.020294,-0.057221,-0.014191,0.080415,0.031586,0.20859,-0.094453
0.068208,-0.0795,0.032502,-0.074617,0.090181,-0.20188,0.070344,-0.069429
0.044404,-0.17075,-0.069123,-0.51225,0.2034,-1.556,-1.0463,-0.11124
0.0028992,-0.15702,-0.066987,-0.2797,0.21347,-2.434,-0.74937,-0.14054
-0.018158,-0.16495,-0.1445,0.71366,0.061189,-0.32609,0.48875,-0.10452
-0.043488,-0.12009,-0.088045,0.025483,-0.12955,0.73777,0.34501,-0.066072
0.037995,-0.15824,-0.028229,-0.066377,-0.17777,0.45548,0.35599,0.037995
-0.019684,0.087129,-0.10666,-0.066377,-0.045319,0.30716,1.0192,0.11063
-0.11917,0.26627,-0.16098,-0.18509,-0.0083925,0.21256,0.53117,0.099031
-0.15946,0.19608,-0.14176,-0.22507,0.11582,0.011444,-0.79026,0.049897
-0.21622,0.16678,-0.062104,-0.20615,0.066072,0.23209,-0.43259,0.069734
-0.19516,0.12802,0.0035096,-0.16983,-0.081941,0.31662,0.53117,0.15335
-0.091402,-0.02945,0.012665,0.24277,-0.0035096,0.044709,-0.69688,0.051728
-0.045014,0.023651,-0.091402,-0.15488,-0.00076295,0.045014,-0.50431,0.0053407
-0.061799,0.070039,-0.012055,-0.19394,-0.020905,0.033417,0.018158,0.034943
-0.0068666,-0.10636,0.056916,-0.0032044,-0.033112,0.085298,0.62669,0.12619
0.029145,-0.12039,0.012055,0.013581,0.050202,0.072786,0.53971,0.043183
0.035859,-0.18479,-0.028534,-0.050202,0.11643,-0.036469,-0.24765,-0.019379
0.074006,-0.3209,-0.06424,-0.027008,0.071565,0.014496,-0.2681,-0.050813
0.10422,-0.30014,-0.040131,0.13596,-0.10422,0.18112,0.095674,-0.087739
0.036774,-0.060578,-0.10666,0.0056458,-0.033112,0.016632,-0.22721,-0.11429
-0.052033,0.073091,-0.15549,-0.20981,-0.093233,0.36606,0.24399,-0.047456
-0.093538,0.18997,-0.12619,-0.1854,-0.23728,0.4918,0.85618,0.012055
-0.1323,0.2266,-0.14176,-0.33921,0.0047303,-0.33677,0.07248,0.041962
-0.15885,0.043488,-0.070344,0.15183,-0.076143,-0.019684,-0.36881,0.056001
-0.13565,-0.15885,-0.033112,0.10941,-0.043488,-0.43259,-0.49577,0.047761
-0.094453,-0.1564,0.022736,-0.33219,0.24338,-0.87053,-0.044709,0.07126
-0.087434,-0.098726,-0.017548,-0.33127,0.17258,0.21988,0.2211,0.089876
-0.024567,-0.10147,-0.096284,-0.16709,0.13993,0.28824,-0.11765,0.12589
0.087739,-0.11398,-0.077974,-0.11795,0.15305,0.068208,0.15427,0.10147
0.1146,-0.023346,-0.023041,0.038911,0.094759,-0.18845,0.15915,-0.016938
0.068208,0.041962,0.00045777,0.23758,-0.099031,-0.17288,-0.35538,-0.10697
0.099031,-0.042573,0.0013733,0.32303,-0.48936,0.60563,-0.42649,0.019684
0.066377,-0.036164,-0.027008,-0.048676,0.059968,0.18326,0.081636,-0.010224
0.059968,-0.12436,0.0038148,-0.38865,0.082246,-0.17105,0.40635,-0.044404
-0.029755,-0.031891,-0.061799,-0.43992,0.039216,0.045624,0.27329,-0.0080873
-0.084077,-0.041352,-0.069123,-0.42466,0.29648,-0.29526,0.21683,-0.026398
-0.01236,-0.19608,-0.10117,-0.013275,-0.08072,0.028534,0.23209,-0.0090028
0.015106,-0.062715,-0.11765,0.052644,-0.073701,-0.31266,-0.13596,-0.022126
0.0074769,0.10208,-0.16861,-0.086824,-0.04654,-0.15152,-0.69352,-0.095369
-0.044404,0.13169,-0.095369,0.10483,-0.10239,0.62852,-0.17411,-0.085298
-0.055085,0.12131,-0.077974,0.3859,-0.0206,0.56626,0.55589,0.060273
-0.018769,0.0077821,-0.093538,-0.00015259,0.014801,0.32853,0.8275,0.15457
-0.060578,0.043793,-0.086213,-0.30014,0.27848,-0.37186,0.63737,0.0056458
-0.084993,-0.016327,-0.036164,-0.28641,0.20706,-0.87266,-0.15702,-0.14176
-0.014801,-0.19547,0.074922,-0.088655,-0.19883,-0.82719,-1.4751,-0.16312
0.057527,-0.29648,-0.0053407,-0.040131,-0.14023,-0.2034,-0.69322,-0.095674
0.044099,-0.22812,-0.0099184,-0.12802,-0.086213,0.53239,0.52384,-0.009308
0.032197,-0.086519,-0.014496,-0.027314,0.5095,0.18814,0.22385,-0.00045777
-0.034943,0.056611,-0.056916,-0.02884,0.22324,-0.052949,-0.3444,0.0035096
-0.068818,0.026398,-0.019684,-0.07248,-0.14145,0.081636,0.052033,0.099947
-0.087434,0.00045777,-0.065156,-0.083772,-0.043183,0.016632,-0.46586,0.086519
-0.1326,-0.0028992,-0.073091,-0.060578,-0.093233,0.094453,-0.78508,0.033417
-0.12924,0.02121,-0.072175,0.0053407,-0.091096,0.17838,0.1387,0.047456
-0.084382,0.11521,-0.11337,-0.048981,-0.060578,0.054475,0.58152,0.13107
-0.15671,0.12558,-0.10666,-0.0019837,-0.095064,0.16922,0.43168,0.076753
-0.1503,0.052033,-0.14084,-0.17288,-0.019379,0.090486,0.38834,0.087739
-0.036774,0.047456,-0.12345,-0.35782,0.14176,-0.073396,0.3386,0.11612
-0.04715,0.033112,-0.061189,-0.15793,0.010529,0.051423,0.36393,0.10544
-0.056001,-0.040131,-0.04654,-0.021515,-0.020905,0.04654,-0.091096,0.065766
-0.088045,-0.019989,-0.0383,-0.044099,0.096895,0.34836,0.013581,0.069429
-0.019074,-0.09781,-0.073396,-0.025483,0.032807,0.83787,0.50492,0.16007
0.027619,-0.24704,0.021515,0.027619,-0.00015259,0.67338,0.22782,0.090181
0.087434,-0.23545,0.021515,0.051423,-0.10361,0.20798,0.29862,-0.07126
0.11856,-0.12192,-0.016632,-0.028229,-0.40513,-0.63951,0.68864,-0.14603
0.068208,0.061494,-0.092012,-0.14664,-0.066987,-2.0296,-0.27787,-0.29618
0.049287,0.06363,-0.10605,-0.18143,0.11582,-0.63401,-1.2706,-0.2739
0.13779,-0.20188,-0.029755,-0.28183,0.11704,0.78264,-0.24704,-0.10941
0.08957,-0.19944,-0.0053407,-0.18143,0.070649,-0.18448,-0.67979,-0.1265
0.012665,-0.047761,-0.032807,0.16129,0.12894,-0.91051,-0.81529,-0.14969
0.047761,-0.05478,-0.0383,0.082246,0.2092,0.23453,-0.95048,-0.034943
0.016022,0.065461,-0.087129,0.14023,0.053864,0.32395,-0.00076295,0.10544
-0.029755,0.13321,-0.10605,-0.016632,-0.046845,0.11002,0.60258,0.22141
-0.065461,0.085603,-0.14084,-0.27329,0.091402,0.08835,-0.088045,0.16312
-0.12192,-0.058137,-0.11612,-0.24552,0.059052,0.29618,0.1915,0.15793
-0.21683,0.00045777,-0.14298,-0.4799,-0.093233,0.36728,0.70054,0.12406
-0.17838,-0.16434,0.087739,0.22202,-0.14084,0.27207,0.56992,0.033417
-0.18601,-0.11856,-0.034638,-0.073396,-0.099641,0.26963,0.50065,0.011444
-0.20706,-0.005951,-0.084382,-0.26017,-0.11215,-0.081941,-0.064851,0.020905
-0.12619,0.050202,-0.056306,-0.19913,-0.026398,-0.59251,-0.77592,0.015717
-0.12772,0.071565,0.052644,0.08957,0.041962,0.042573,-0.023651,0.043183
-0.069123,-0.081636,0.024567,0.82017,0.053559,0.1561,0.39536,0.059663
-0.033417,-0.042573,-0.033112,-0.28031,0.20859,-0.081941,-0.088045,0.040436
-0.0086976,-0.057832,-0.028229,-0.25772,0.066072,0.081025,0.17899,0.016022
0.0038148,-0.060578,-0.072175,-0.14847,0.0053407,0.15915,0.49668,-0.023346
0.022736,-0.032807,-0.067292,-0.097505,0.0383,0.11246,0.55009,0.03006
0.020905,0.019989,-0.1033,-0.16617,0.045624,0.041352,0.52506,0.056001
0.068513,-0.030671,-0.13291,-0.30594,0.072175,-0.095674,0.28763,-0.043793
0.13077,-0.00015259,-0.087129,-0.12253,-0.011444,-0.063325,-0.30777,-0.10025
0.08011,0.066072,-0.103,0.023651,-0.11612,0.12772,-1.0603,-0.1146
0.015717,0.017243,-0.14542,0.034638,-0.073091,0.18021,-0.59892,-0.01236
-0.0019837,-0.047456,-0.094453,-0.12924,-0.037385,-0.22354,-0.41794,0.041962
0.020294,-0.10849,-0.047761,-0.18357,-0.12955,-0.068513,-0.10147,0.022126
-0.0013733,-0.11612,-0.055085,-0.21164,-0.057527,0.31907,0.58,0.02884
-0.076143,0.018463,-0.05417,0.069429,0.036774,0.29404,0.40848,0.016022
-0.087739,0.017243,-0.019989,-0.0080873,0.061799,0.064851,0.34653,0.033722
-0.0096132,-0.13748,-0.028229,-0.486,0.15274,-0.16861,0.31205,-0.014801
0.047761,-0.20279,0.0047303,0.40635,0.067292,-0.63737,-0.18875,-0.035859
0.012055,-0.10575,0.0086976,-0.059052,-0.076753,-0.13169,-0.37308,-0.13199
-0.015106,-0.052338,-0.041962,-0.19089,-0.13657,0.60227,-0.23972,-0.10788
0.045624,-0.019684,-0.022736,0.12345,0.089876,0.072175,0.22141,0.009308
0.050202,-0.12253,0.00076295,0.20584,0.24704,-0.76036,0.07126,-0.036469
0.011749,-0.09659,-0.060578,0.07126,0.20554,-0.19913,-0.32761,-0.064851
-0.024872,-0.00015259,-0.11887,-0.23239,-0.10025,0.486,-0.14389,0.014191
-0.10758,0.08957,-0.082246,-0.13169,-0.059663,-0.34348,-0.020294,0.068208
-0.1268,0.049592,-0.11643,-0.16953,0.079194,-0.20676,-0.25589,0.11429
-0.069429,-0.10178,-0.060578,-0.35843,-0.064851,0.29679,-0.24949,0.10544
-0.098116,0.039521,-0.088045,0.073091,0.21561,0.26841,0.14725,0.094453
-0.13413,0.19944,-0.13443,-0.17136,0.15457,0.083467,0.025788,0.082856
-0.16587,0.18997,-0.12375,-0.4036,-0.7509,0.064851,-0.009308,0.10666
-0.1033,0.014191,-0.08835,-0.14206,-0.070954,0.19394,0.16251,0.13657
0.0074769,-0.048066,-0.016327,0.10544,0.14267,0.56535,0.52476,0.18967
0.0086976,0.025177,-0.0053407,-0.070649,-0.019074,0.37461,0.44999,0.081941
0.046235,-0.070954,0.049897,0.025788,0.1265,-0.73503,-0.064546,-0.081331
0.065156,-0.24857,0.048066,0.026093,0.095979,-1.0845,0.016632,-0.17319
0.062104,-0.4271,0.0062562,-0.02945,0.0080873,0.61601,0.54795,-0.11826
0.068513,-0.31876,-0.027008,0.10513,-0.016327,0.3975,0.50034,-0.073701
0.050202,-0.1622,0.00045777,0.091096,0.005951,0.27054,-0.20401,-0.11917
-0.040742,0.11765,-0.10605,-0.18326,0.087739,-0.11826,-0.67338,-0.15366
-0.059358,0.11978,-0.096895,-0.0047303,0.061799,-0.3679,-0.11429,-0.042878
-0.059968,0.083162,-0.11673,-0.044709,0.059663,0.23545,-0.2565,-0.010834
-0.103,0.11826,-0.1088,-0.21958,0.06424,0.05478,-0.50034,-0.060883
-0.12528,0.11429,-0.13291,-0.23148,-0.030976,-0.45243,-0.79606,-0.020905
-0.1561,0.0071717,-0.11093,-0.19486,-0.15854,0.39536,0.3151,0.13199
-0.10849,-0.029755,-0.12497,-0.1149,-0.2504,0.80339,0.68315,0.2504
-0.086824,-0.010834,-0.10971,-0.030976,-0.15885,-0.1622,-0.070039,0.30869
-0.055695,0.059968,-0.05417,0.014496,0.38407,-1.3692,0.19486,0.17288
-0.0074769,0.017853,0.010224,0.03006,0.61418,-0.99901,0.2089,0.11643
0.042267,-0.14817,0.034638,-0.13382,-0.0068666,0.48356,0.20096,0.031281
0.086824,-0.15183,-0.037079,-0.17563,-0.070954,0.82597,0.20584,-0.10941
0.13077,-0.14389,-0.023041,-0.19547,-0.047761,0.30259,0.57328,-0.13077
0.11826,-0.27176,-0.011444,0.11917,-0.10025,0.10788,-0.32059,-0.26047
0.06302,-0.15793,0.052338,-0.069429,-0.12589,-0.68833,-1.6081,-0.21286
-0.024262,0.019074,-0.022126,-0.18204,-0.081025,-0.54612,-0.087739,-0.11429
-0.068208,0.082246,-0.077363,-0.034943,0.13443,0.5214,1.3503,0.026093
-0.058747,0.049287,-0.11429,-0.061799,0.2977,0.25528,0.41001,0.041047
-0.065156,-0.041657,-0.033112,-0.099031,-0.02884,0.32029,-0.91203,-0.077668
-0.15152,-0.11887,-0.016022,-0.098421,-0.1622,0.047456,-1.8761,-0.14359
-0.15061,-0.027619,-0.12131,-0.02121,-0.14725,0.10391,-0.72984,0.049897
-0.1207,0.12314,-0.12863,-0.0062562,-0.17655,0.33219,0.91875,0.26841
-0.091096,0.12772,-0.11093,-0.25376,-0.16434,0.0099184,0.76249,0.2623
-0.084382,0.12406,-0.15976,-0.1912,-0.085908,-0.23819,0.52445,0.24735
-0.026398,-0.043793,-0.10422,-0.16709,0.051728,0.29953,0.81041,0.18235
0.045014,-0.15671,-0.056916,-0.10727,-0.12589,0.22019,0.80583,0.1088
0.12863,-0.21988,-0.017853,0.021515,-0.028534,-0.13596,0.42618,0.017243
0.10391,-0.13596,0.0053407,-0.00045777,0.46525,-0.31571,-0.81376,-0.13077
0.043183,-0.077974,0.0041199,0.038605,0.2211,0.059663,-1.2877,-0.15152
0.0383,0.017853,-0.010224,-0.026093,-0.010834,0.070954,0.58549,-0.016632
0.066377,0.005951,-0.028229,-0.030365,-0.009308,0.17899,0.75914,0.031586
0.043488,-0.061494,-0.031891,0.081941,-0.021515,-0.35416,0.14145,-0.073701
-0.015412,-0.032197,-0.018158,0.11795,0.058137,-0.68315,-0.22416,-0.22141
-0.11643,-0.070649,-0.037079,0.096284,0.065156,0.26139,-0.54154,-0.19913
-0.18692,0.060273,-0.091402,-0.049287,0.069734,0.28458,-0.21836,-0.027314
-0.1326,0.067292,-0.062715,-0.29801,0.082246,-0.035554,0.27939,0.1323
-0.10849,0.044404,-0.11063,-0.31388,0.02121,0.087739,0.17288,0.13626
-0.16312,0.013581,-0.18204,-0.20584,-0.04654,0.031281,0.047761,0.17441
-0.081941,-0.1503,-0.056306,0.045624,-0.059052,0.010529,0.18479,0.13169
0.005951,-0.18082,-0.1799,-0.011444,0.02884,-0.1442,-0.13321,0.12192
-0.016938,0.10391,-0.16159,-0.18265,0.19059,-0.4564,-1.0497,-0.074006
-0.057221,0.081941,0.00045777,-0.22232,-0.10361,0.67613,-0.10117,-0.11734
-0.044709,-0.011444,-0.020905,-0.20096,-0.32212,0.79698,0.41276,-0.028534
-0.082246,0.01236,-0.0047303,-0.19303,-0.28977,0.17533,0.28519,0.014801
0.071565,-0.24674,0.042267,0.1323,-0.14542,0.095979,0.41245,0.083772
0.1912,-0.13413,-0.0041199,0.34775,0.18296,-1.1122,-0.13016,0.045624
0.11795,-0.031586,0.064546,-0.21897,0.14847,-0.68894,0.10452,-0.090791
0.089876,0.0065614,-0.08896,-0.52689,-0.067903,0.3389,-0.044709,-0.10971
0.028229,0.02121,-0.050507,-0.30533,0.078584,-0.23758,-0.67185,-0.17288
0.009308,-0.013886,-0.103,0.0077821,0.042267,0.24186,0.063935,-0.073396
-0.0062562,-0.10788,-0.039826,-0.034943,0.19486,0.18753,0.31296,0.041352
-0.044709,-0.18204,-0.020294,0.18326,0.18326,0.08896,0.21592,0.065156
-0.085298,-0.14359,-0.11734,0.099031,0.059052,0.040131,0.23148,0.050507
-0.10605,0.002594,-0.094759,-0.015106,0.0068666,0.035554,0.23636,0.040131
-0.16007,0.0795,-0.078584,-0.033722,-0.049897,0.099947,0.29404,0.02121
-0.18387,0.03006,-0.074311,0.065766,-0.030365,0.049592,0.23789,0.031586
-0.16648,0.071565,-0.14115,-0.19059,-0.012055,0.012055,-0.26322,0.075837
-0.15152,0.13016,-0.14755,-0.14725,-0.048371,0.055085,-0.40055,0.16831
-0.14542,0.15061,-0.12222,-0.042878,-0.11398,0.14359,0.22416,0.23087
-0.13565,0.062104,-0.027008,-0.31998,-0.036774,0.041352,0.046235,0.13687
-0.07187,0.028229,0.037995,-0.12253,0.027924,0.051728,0.34867,0.12833
0.10147,-0.088655,0.049592,-0.022736,0.032807,0.02945,0.40574,0.054475
0.1912,-0.060883,-0.034943,-0.11185,0.024262,-0.02884,-0.32303,-0.048676
0.21378,-0.14481,-0.0083925,-0.099336,0.023957,-0.12558,-1.1116,-0.1387
0.18967,-0.20859,0.095979,-0.091707,-0.096284,0.61479,0.15213,-0.032502
0.1854,-0.46677,-0.0062562,-0.049592,-0.095674,1.2654,1.1739,-0.0096132
0.09659,-0.38987,-0.0080873,0.2504,-0.016327,1.1055,0.75822,-0.045319
-0.050813,-0.1088,-0.070039,-0.13107,0.056916,0.075837,-0.15763,-0.12161
-0.10697,0.13321,-0.084993,-0.16007,0.59495,-1.3863,-1.0445,-0.18723
-0.0972,0.040131,-0.11429,-0.11795,0.29587,-2.6027,-1.548,-0.22232
-0.090791,-0.085908,-0.17197,-0.16587,-0.23423,-0.64286,-0.38712,-0.061189
-0.035248,0.044709,-0.1973,-0.46647,-0.13993,0.76555,0.86717,0.066682
-0.025177,0.10513,-0.10605,0.27481,0.018769,0.55253,0.52232,-0.0062562
-0.087434,0.16556,-0.12711,0.02945,-0.037079,0.19852,-0.45274,0.023957
-0.17166,0.27237,-0.17472,-0.20768,-0.17472,0.24796,-0.55589,0.041047
-0.15854,0.21378,-0.079194,-0.14664,-0.10513,0.42557,0.57542,0.18448
-0.064546,0.0080873,0.010529,-0.032502,0.048981,0.2031,0.12406,0.20951
0.04715,-0.19821,0.12955,0.086824,0.22385,-0.14633,-0.89311,0.027924
0.06302,-0.13962,0.024567,0.11551,0.14633,-0.081331,-0.084993,-0.095674
0.056001,-0.24796,0.035554,-0.0795,0.13382,-0.60716,0.10239,-0.21714
0.043183,-0.29679,-0.043793,-0.12589,-0.374,-0.098726,0.29465,-0.15946
-0.0041199,-0.11093,-0.070039,-0.10849,-0.18296,0.71702,0.72892,0.022736
-0.042573,0.034333,-0.057221,-0.064851,0.17502,0.1857,0.71855,0.15702
-0.091096,0.019989,-0.034028,-0.20523,-0.043488,0.12406,0.84733,0.16617
-0.14694,0.051728,-0.070039,-0.13779,0.015717,0.10269,0.4213,0.10483
-0.075227,0.075227,-0.11276,-0.23697,-0.078279,0.020905,-0.7982,0.092012
-0.057832,0.045624,-0.11124,-0.08896,0.061494,-0.22202,-1.0912,-0.0083925
-0.081636,0.018158,-0.07248,0.13596,0.12467,0.028229,-0.13535,-0.0028992
-0.11643,-0.043488,-0.095064,-0.11093,0.1976,0.24582,0.43961,0.094453
-0.10605,-0.074922,-0.1323,-0.16251,0.20127,0.53117,0.83909,0.14542
-0.045014,-0.074311,-0.17258,-0.058137,-0.22934,0.63462,0.53391,0.12924
-0.068818,0.10208,-0.061799,-0.015106,-0.40818,-0.075837,-0.46067,0.027314
-0.035248,0.044099,0.0016785,-0.020294,-0.17197,-0.94987,-0.76371,-0.034638
-0.029755,0.035554,-0.10483,-0.15457,0.41337,-1.1687,-0.86259,-0.13626
0.082551,-0.13748,-0.016632,-0.15671,0.17868,-0.090486,-0.10849,-0.045319
0.085908,-0.02884,-0.040742,-0.08072,-0.3093,0.019074,0.31632,-0.0041199
0.061799,0.089876,0.027924,-0.12192,0.031891,0.12345,-0.79362,-0.1207
0.066072,0.019074,0.088655,0.1265,0.090791,0.17777,-0.15854,-0.11521
0.087739,-0.12985,0.093233,0.37278,0.033112,0.1915,0.61479,-0.030365
0.041962,-0.33494,0.089265,0.17014,0.10788,0.17227,0.49027,-0.01297
0.067292,-0.41947,-0.076448,-0.12894,0.080415,0.10086,0.5803,0.015106
-0.0019837,-0.12955,-0.17472,-0.67308,0.022736,-0.012055,0.76097,-0.0090028
-0.066987,0.13474,-0.18296,-0.34134,0.065766,-0.080415,0.29465,-0.10025
-0.17227,0.18631,-0.16861,-0.19974,-0.0047303,0.22934,-0.25345,-0.087739
-0.168,0.018158,-0.078584,0.040131,-0.052949,0.49638,-1.1788,-0.057221
-0.13443,0.016327,-0.095369,0.03769,-0.073091,0.022126,-0.60258,0.12192
-0.082856,-0.056001,-0.086824,-0.22507,-0.00045777,-0.0022889,0.69108,0.16892
-0.040436,-0.02884,-0.070649,-0.10941,-0.016938,-0.31327,0.75853,0.10636
-0.030976,0.00045777,-0.050202,0.25956,-0.03769,-0.85924,-0.20615,0.1622
0.017548,-0.053559,-0.029755,0.18143,0.15457,0.27665,-0.2974,0.12985
-0.013275,-0.076448,-0.005951,-0.3032,0.24186,0.38956,0.26047,0.016022
-0.037079,-0.011444,-0.040436,-0.18692,-0.16678,0.41459,0.6099,0.12497
0.013886,-0.05539,-0.020905,-0.064546,-0.29282,-0.2974,-0.28305,0.18357
0.0010681,0.040131,-0.03006,-0.0013733,-0.085298,-0.80003,-1.3252,0.0099184
0.0099184,0.019379,-0.044099,0.017243,-0.011139,0.30045,-0.3331,-0.06363
0.015412,-0.062409,-0.019074,-0.12161,-0.010834,0.28153,0.47807,-0.010224
0.011139,-0.074922,-0.058442,-0.27451,-0.031281,-0.04593,0.10452,-0.11826
0.035859,-0.099947,-0.060578,-0.12039,-0.013275,0.069123,0.050202,-0.18387
0.050507,-0.19303,-0.089265,-0.14389,0.11826,0.19821,0.20401,-0.20584
0.041657,-0.103,-0.066987,-0.11032,0.11185,0.13413,0.18753,-0.16373
-0.027619,0.066377,-0.1033,-0.074311,0.18845,0.026703,-0.10452,-0.15793
-0.0383,0.098726,-0.1265,0.044709,0.092012,-0.036469,-0.25986,0.04715
-0.10391,0.056001,-0.08896,0.043488,-0.11398,0.39536,0.048981,0.14328
-0.11734,0.11856,-0.14328,-0.051728,0.57298,-0.45609,-0.0068666,0.12039
-0.069429,0.20005,-0.093233,-0.10544,0.061189,-1.2435,-0.036774,0.18784
-0.066987,-0.066072,0.034028,-0.022126,-0.34379,0.47501,0.37827,0.14939
-0.094453,-0.38437,0.00045777,-0.12802,-0.12406,0.5275,0.59098,0.10697
-0.16007,-0.20676,-0.06424,-0.16861,0.034028,0.21195,0.52811,0.086213
-0.10147,0.034028,-0.005951,-0.11246,-0.10941,-0.29984,0.12924,0.04715
-0.023651,-0.0028992,0.020905,0.035554,-0.11185,-0.065766,-0.098116,0.0041199
-0.021515,-0.025788,-0.002594,0.019684,0.063935,0.41886,-0.49912,-0.052644
-0.019074,-0.077974,-0.036774,-0.17899,0.013275,0.027924,-0.93858,-0.05478
0.048066,-0.13443,0.0074769,0.27024,0.16648,-0.64897,-0.19333,0.0099184
0.059052,-0.081636,-0.057832,-0.20188,0.21561,0.040742,0.32059,-0.010224
0.0383,-0.0099184,-0.11124,-0.19699,-0.16068,0.40757,0.44877,-0.0056458
-0.0096132,0.056306,-0.14267,-0.23819,-0.032807,0.14115,0.5803,-0.0074769
-0.037385,0.13596,-0.12375,-0.073701,-0.051728,0.13748,0.067292,-0.010224
-0.032502,0.05417,-0.060883,0.11246,-0.14145,0.57603,0.28794,0.019074
0.00076295,0.015717,-0.15061,-0.121,-0.022431,0.25956,0.21775,-0.0053407
-0.011139,0.16312,-0.17929,-0.26932,0.075837,-0.69383,-0.49516,-0.039216
-0.035248,0.074006,-0.064546,-0.083772,0.083772,-0.98894,-0.54032,-0.050507
0.013275,-0.19669,0.12284,-0.085603,0.11551,-0.20035,-0.82414,-0.034333
0.027008,-0.21988,-0.13443,-0.096284,0.0068666,0.30716,-0.17227,0.064546
0.023651,-0.18936,-0.059052,-0.069429,-0.074006,0.25803,0.48875,0.069429
-0.00045777,-0.2089,0.060273,0.021515,-0.065766,0.41306,-0.12955,-0.056001
-0.040436,-0.099641,-0.025788,0.0010681,-0.062104,0.32212,-0.12222,-0.08896
-0.041352,-0.018158,-0.063325,-0.036774,-0.043183,0.15824,0.04715,-0.10636
-0.055695,0.037385,0.030671,-0.18906,0.035248,-0.24949,-0.099336,-0.049897
-0.053864,-0.040131,0.058137,0.33585,0.13504,-0.92882,0.14054,0.0090028
-0.081636,-0.0206,-0.075227,-0.036774,0.12894,-0.091402,0.56687,0.049287
-0.043183,0.11368,-0.053254,-0.18814,0.035554,0.38437,0.25986,0.13474
-0.050813,-0.15854,-0.068818,-0.10483,-0.044709,0.11765,0.075532,0.10147
-0.11948,-0.062715,-0.092012,0.10819,0.041657,0.034638,-0.15152,0.079805
-0.065766,0.022736,-0.11429,-0.26719,0.08072,-0.010224,-0.869,0.043488
-0.051728,-0.070039,-0.074006,-0.3743,-0.0071717,0.12345,-0.16861,0.011749
-0.032807,-0.052338,-0.11826,-0.11643,-0.039521,0.022736,0.40482,0.061494
-0.10361,0.15946,-0.1326,-0.095064,0.02884,-0.23209,0.19516,0.081331
-0.078279,0.10056,-0.17929,-0.11948,0.0086976,-0.080415,0.16403,0.073701
-0.075227,0.059968,-0.099641,-0.10727,-0.064546,0.19181,0.37003,0.077974
-0.0053407,0.00045777,-0.00045777,-0.059052,-0.077974,0.48203,0.6804,0.023041
0.0099184,0.0077821,-0.060578,-0.11765,-0.10788,0.34684,0.81743,0.048981
0.084077,-0.15152,0.025788,0.067292,-0.065156,0.15122,-0.034943,-0.035859
0.15518,-0.15488,0.032197,0.18357,0.037385,0.019989,-1.0057,-0.12375
0.13046,-0.065766,-0.0028992,-0.25803,0.073396,-0.039216,-0.89616,-0.11795
0.04593,-0.013886,-0.076143,-0.39139,0.052033,-0.76005,-0.51743,-0.090181
0.049287,-0.10208,0.0096132,0.54582,0.029755,-0.45335,0.58488,-0.061189
0.11215,-0.21622,-0.0041199,-0.33799,0.024262,0.31601,1.1537,-0.024262
0.10575,-0.30259,0.049592,-0.17746,0.039521,0.46098,0.77501,-0.057527
-0.032807,-0.32273,-0.053864,-0.01236,0.25101,-0.17044,-0.22873,-0.16648
-0.16983,-0.0028992,-0.11704,0.075227,0.23972,-0.56291,-0.88457,-0.079194
-0.22171,0.26047,-0.14511,-0.032807,0.12711,-0.018769,-1.2944,-0.0083925
-0.16587,0.24796,-0.15702,-0.12161,-0.30167,0.2092,-1.2789,0.053864
-0.15793,0.15915,-0.11887,-0.11154,-0.67002,0.19516,0.028229,0.18082
-0.087129,-0.042573,-0.068818,-0.078279,0.29618,-0.14237,0.68223,0.16251
-0.048371,-0.036469,-0.12345,-0.18112,0.094148,0.002594,0.69963,0.17014
0.0028992,-0.06363,-0.069429,-0.23545,-0.10147,-0.24277,0.60136,0.18448
0.026093,-0.078279,-0.034943,-0.16342,-0.11612,0.58366,0.43107,0.11215
-0.023346,0.015717,-0.016632,-0.069734,-0.17288,0.85374,0.074006,0.039521
-0.061494,-0.025788,0.0022889,0.087129,-0.033722,0.6807,0.44968,0.034333
-0.10452,-0.016327,0.015717,-0.12863,0.37186,-0.13443,-0.35416,-0.11032
-0.075227,-0.034943,-0.050507,-0.15,0.40635,-1.476,-0.26566,-0.073091
0.040436,-0.030976,-0.00076295,0.18357,-0.16464,-0.14755,0.60868,0.14237
0.055695,0.059358,0.0035096,-0.077058,-0.28794,0.19852,-0.079194,-0.095369
0.024262,-0.084993,-0.010224,-0.092622,0.22599,-0.18631,-1.0369,-0.28946
0.018158,-0.15152,-0.12497,-0.059052,0.41642,-0.40421,-0.56779,-0.26932
-0.035859,-0.00045777,-0.23911,-0.069429,0.2031,-1.0167,-0.065766,-0.16281
-0.06363,0.010224,-0.10971,-0.02121,-0.18967,0.31662,0.28214,0.018158
-0.04715,-0.075532,-0.005951,0.00045777,-0.21012,0.61906,0.76341,0.18357
-0.023651,-0.047761,-0.052338,-0.10239,-0.027314,0.21225,0.47745,0.19944
-0.061494,0.018158,-0.068513,-0.16342,0.041962,0.11643,0.06363,0.03769
-0.049592,0.072175,-0.10239,-0.23728,0.079805,-0.060273,-0.79484,-0.02945
-0.089265,0.0086976,-0.057221,-0.12924,-0.12558,0.21714,-0.84642,0.092927
-0.07187,-0.19486,-0.10269,-0.084382,-0.17716,0.32029,0.30625,0.22599
0.0035096,-0.042878,-0.060578,-0.13291,-0.11521,0.18082,0.44877,0.21561
0.13382,-0.11856,-0.011749,-0.096284,-0.10636,0.091402,0.27543,0.059358
0.13931,-0.1146,0.019989,0.12589,0.018769,-0.51316,0.086213,-0.10513
0.057221,0.0022889,-0.019989,-0.044099,0.015106,0.091402,0.048066,-0.14237
0.0010681,-0.03769,0.020905,-0.16373,0.04593,0.1973,0.2153,-0.090181
-0.030671,-0.13565,0.019684,0.14725,0.25345,0.069123,0.20279,-0.081636
-0.0090028,-0.1622,-0.067292,0.051118,0.20981,0.33127,0.18387,-0.01297
-0.010834,-0.1564,-0.093538,-0.19699,0.074311,-0.36179,-0.23514,0.019989
-0.061799,-0.050507,-0.078279,-0.033722,0.00045777,-0.55558,-0.39719,-0.0013733
-0.055085,0.071565,-0.080415,-0.19333,-0.07126,0.19394,-0.25376,0.018769
-0.078279,0.16953,-0.039216,-0.10575,-0.027619,0.086519,-0.11185,-0.019684
-0.10544,0.060578,-0.08957,-0.035554,-0.048371,0.083772,0.16831,0.0099184
-0.096284,-0.0041199,-0.1268,-0.0010681,-0.018769,0.11887,0.35721,0.072175
-0.10971,0.02945,-0.096284,-0.094453,-0.0383,0.1738,0.33524,0.13504
-0.1268,0.0022889,-0.11307,-0.26322,-0.10941,0.38956,0.45487,0.11246
-0.15671,0.10575,-0.15671,-0.16861,-0.068818,0.20859,0.18021,0.044404
-0.1146,0.11154,-0.00045777,-0.11765,-0.063325,0.19638,0.1445,0.16068
-0.057832,0.045624,-0.0035096,0.023957,-0.035248,-0.27085,-0.053864,0.12222
0.021515,-0.060273,-0.032807,0.020905,0.075532,-1.2007,-0.44236,-0.024567
0.012665,-0.2501,0.05417,-0.29953,0.21836,-0.17838,-0.29191,-0.088045
0.062104,-0.3328,0.016022,-0.2208,0.25589,0.2681,-0.99046,-0.092012
0.16129,-0.13993,-0.044099,-0.00045777,0.085908,-0.06363,-0.6273,-0.045624
0.062409,-0.032502,-0.010224,0.13138,-0.046845,0.1387,0.50645,-0.10849
-0.062104,-0.011444,0.010529,0.18265,-0.10758,0.073701,0.4097,-0.083162
-0.087739,0.033112,-0.09659,0.083467,-0.055085,-0.084382,-0.10819,0.016938
-0.031281,-0.048981,-0.12253,-0.15122,0.066072,-0.08957,0.26322,0.0032044
0.005951,-0.07248,-0.094759,-0.13077,0.022736,0.01236,0.54063,0.016022
-0.059968,0.10788,-0.15305,-0.10727,-0.14481,0.20218,-0.26871,0.010529
-0.04654,0.044404,-0.081025,-0.19821,-0.068818,0.39506,-0.24704,0.10544
-0.094453,-0.02884,-0.066072,-0.19547,0.0053407,0.39048,0.63798,0.1268
-0.11154,0.059968,-0.13046,-0.14145,-0.13169,0.3563,0.51041,0.10269
-0.13565,0.24552,-0.1564,-0.33982,0.21836,0.14328,0.30045,0.045014
-0.069429,0.010529,0.049897,-0.17716,0.075227,-0.048371,0.0090028,-0.053864
-0.016632,-0.038911,-0.089265,0.24063,-0.15824,-0.011139,-0.57908,-0.015106
0.034943,-0.11246,-0.085908,-0.25132,-0.025177,-0.89921,-1.2624,-0.066987
0.069123,-0.29068,0.019684,0.13901,-0.038911,-0.87999,-0.78782,-0.091402
0.14664,-0.41215,0.082551,0.11398,0.11032,0.084382,0.56504,-0.045014
0.19638,-0.34379,0.069734,-0.22293,0.103,0.31632,0.3331,-0.0090028
0.15915,-0.19852,0.016327,-0.14389,0.042267,0.10178,-0.53147,-0.075532
0.098116,-0.061494,-0.049897,0.14908,0.033722,0.28305,0.51652,-0.10544
-0.019074,0.14755,-0.10117,0.099947,-0.020294,0.29038,1.0045,-0.072175
-0.093538,0.20157,-0.13901,0.14969,0.005951,0.052949,-0.044404,-0.042878
-0.0795,0.096284,-0.085908,-0.30198,0.065156,0.057527,-0.55894,0.027619
-0.11856,0.12131,-0.081025,-0.14939,0.005951,-0.29374,-0.31449,0.0013733
-0.16312,0.087129,-0.16068,-0.10575,-0.038605,-0.58152,-0.10422,-0.0074769
-0.11002,-0.060883,-0.039216,-0.09659,-0.083772,0.24369,0.85679,0.050202
-0.16709,0.024262,-0.11368,-0.26291,-0.060883,0.29191,-0.18631,0.095674
-0.24033,0.091096,-0.11704,-0.21225,0.33677,-0.26322,-0.61875,0.16861
-0.11612,0.00045777,-0.072175,-0.13291,0.32731,-0.50797,0.82536,0.2504
-0.049287,0.016632,-0.078889,-0.12528,-0.15396,0.35325,0.88548,0.21317
-0.04593,0.052644,-0.032197,-0.02121,-0.45121,0.6746,0.15274,0.06363
-0.01236,-0.02884,-0.0068666,0.1854,-0.20981,0.47776,-0.62455,0.011749
0.037385,-0.12619,-0.00076295,0.018769,0.037385,0.5864,-0.27054,0.0086976
0.087434,-0.23056,0.036469,-0.15366,0.08835,0.34867,0.48508,-0.021515
0.13993,-0.31418,0.044404,-0.18662,0.0795,-0.38315,-0.034943,-0.13077
0.13443,-0.18631,-0.053864,0.048981,0.20584,-1.2663,-0.59525,-0.25864
0.090181,-0.036164,-0.10971,-0.25589,0.10056,-1.5621,-0.42557,-0.30167
0.07187,0.02121,-0.10727,0.41489,0.0795,0.18784,-0.18387,-0.14206
-0.037079,-0.014801,-0.022736,0.032807,0.23789,0.32639,-0.043793,0.010834
-0.089876,-0.04593,-0.066987,-0.39384,0.24735,0.18509,-0.18723,0.02945
-0.047456,-0.040742,-0.10849,-0.15671,-0.35142,0.37675,0.21378,0.11276
-0.041962,-0.057832,-0.084382,0.011444,-0.49516,0.17716,0.32425,0.1088
-0.11307,0.0096132,-0.06302,-0.084688,0.23301,0.024872,-0.083772,0.043183
-0.15946,0.19394,-0.08011,0.017853,-0.047761,0.13962,-0.27909,0.091402
-0.1033,0.14817,-0.10941,-0.19089,-0.24247,0.26993,0.33005,0.15457
-0.0972,0.10575,-0.067292,-0.64073,-0.12345,0.19211,0.262,0.091707
-0.069429,0.028534,-0.087434,0.48814,-0.024567,0.22934,0.0035096,0.070344
-0.065766,-0.016938,-0.018769,-0.21225,0.29709,-0.074006,-0.075837,0.054475
0.017548,-0.14237,0.085908,-0.060883,0.15488,-0.11398,0.33188,0.099641
0.070039,-0.14572,-0.057221,0.024567,0.045319,0.14939,0.26352,0.020905
0.034943,-0.11765,-0.1146,-0.23697,0.38621,-0.027619,0.028229,-0.09781
0.017548,-0.17899,-0.0206,-0.1619,0.0038148,0.075227,-0.083467,-0.084077
0.082246,-0.31449,0.0053407,0.027924,-0.31205,-0.39017,-0.13931,0.02182
0.16953,-0.23056,0.0080873,0.065156,-0.13382,-0.093538,0.082246,-0.024262
0.076143,0.031281,-0.056916,-0.12375,-0.023651,0.30167,0.22568,-0.13657
-0.038605,0.061494,-0.061799,-0.14145,0.06363,-0.37552,0.052949,-0.14267
-0.092012,0.043183,-0.10147,0.010834,0.05539,0.30381,0.15671,-0.014191
-0.12375,0.036164,-0.12039,-0.16526,-0.040436,0.40513,0.36393,0.12772
-0.13352,0.033112,-0.14115,-0.15061,-0.20829,0.21256,0.59373,0.18143
-0.13535,0.17319,-0.081331,-0.16739,0.014191,-0.42771,0.42924,0.083467
-0.19944,0.11368,-0.026703,-0.049287,0.075837,0.077668,0.28794,-0.0044251
-0.18662,0.0022889,-0.10513,0.13199,0.072175,-0.020905,-0.28946,-0.0206
-0.055085,-0.16098,-0.10056,0.069429,0.18265,-1.1656,-1.7327,-0.0062562
-0.0056458,-0.094148,-0.090791,-0.23789,0.069123,-0.43442,-1.9133,-0.059663
-0.078889,0.056611,-0.060273,-0.05539,-0.103,0.57786,0.34836,-0.015717
-0.050507,-0.016022,-0.016022,0.089876,-0.0047303,0.18936,1.0512,0.10239
0.0071717,-0.11795,0.056001,0.12039,0.103,0.19638,0.7863,0.17655
0.02945,-0.068208,0.020294,-0.057527,0.041657,0.22263,0.2678,0.11398
0.017853,-0.0035096,-0.063325,-0.21988,0.053559,0.33707,0.28519,0.047456
0.026093,-0.066377,-0.063935,-0.22599,0.066377,0.29252,0.20371,-0.084382
0.016632,-0.056001,-0.084382,-0.13077,-0.065156,0.3978,-0.32242,-0.14023
0.061189,-0.18662,0.017853,-0.036164,-0.18051,-0.011139,-0.36667,-0.11765
0.024872,-0.11795,-0.065766,-0.20798,0.032807,-0.64347,0.086824,-0.045624
-0.0050355,-0.041657,-0.089265,-0.20096,0.13413,-0.88548,-0.12436,-0.025788
-0.00045777,0.0099184,-0.070344,0.23362,-0.0795,0.036164,-0.37583,-0.0013733
-0.082246,0.1735,-0.10758,0.017853,0.21958,0.066377,0.17044,-0.035554
-0.043183,0.06363,-0.090791,-0.12955,0.080415,0.049592,-0.4506,-0.0062562
-0.073701,0.10147,-0.092927,-0.17777,-0.64164,0.20584,-1.0695,0.02884
-0.0383,-0.002594,-0.086213,0.042573,0.24308,0.078279,0.45884,0.057221
0.040436,-0.26596,-0.045014,-0.22934,0.26474,0.036774,0.96788,0.13626
-0.017548,-0.13993,-0.11704,-0.0044251,-0.12619,0.11704,0.38865,0.010834
-0.0083925,-0.083467,-0.039826,-0.16556,0.031891,0.065156,-0.77592,-0.060883
-0.013275,-0.031586,0.0041199,-0.24125,0.0383,-0.056001,-0.52659,-0.056916
0.083772,-0.053864,-0.018769,-0.048981,-0.024567,0.08896,-0.16678,-0.081941
0.12436,-0.023346,0.010224,-0.046235,-0.061799,0.068818,-0.26169,-0.11429
0.10452,-0.04654,-0.05417,-0.039521,-0.022126,0.074922,0.44297,-0.16312
0.0013733,-0.093843,0.0096132,-0.020294,-0.018769,0.092317,0.64225,-0.12741
-0.06363,-0.1265,0.048066,0.0056458,0.0019837,0.022736,0.48783,0.028229
-0.15305,0.035554,-0.19364,-0.093538,0.07248,0.04654,0.31846,0.14939
-0.16312,-0.052644,-0.11887,-0.13596,0.089265,0.24552,0.10575,0.18112
-0.13535,-0.062409,-0.12833,-0.13596,-0.033417,0.29374,0.050202,0.22507
-0.048371,0.17716,-0.12284,-0.13596,-0.086824,0.31693,0.28031,0.27787
-0.08835,0.21805,-0.12161,-0.13291,-0.037079,-0.16464,-0.21714,0.1912
-0.16373,0.13169,-0.087129,-0.25986,0.10636,-1.1504,-0.5626,0.045319
-0.1445,-0.077974,0.011444,-0.10513,0.012665,-0.16098,0.42252,0.12467
-0.092012,-0.18784,0.064546,0.14023,-0.20188,1.0033,0.89189,0.094148
-0.037385,-0.31815,0.04593,0.35203,-0.024567,0.32578,0.047456,-0.098116
0.033722,-0.15488,-0.092927,-0.10452,0.21714,-1.0854,-1.3774,-0.3154
0.037385,0.0065614,-0.049287,-0.309,0.13596,-0.26841,-0.66087,-0.11612
0.060578,-0.10025,-0.031586,0.38254,-0.12314,0.17533,0.57145,0.091707
0.01297,0.0071717,-0.035554,-0.020294,0.14206,-0.98772,0.085908,-0.016938
-0.0068666,-0.01297,-0.064851,-0.23392,0.11185,0.36545,0.41306,-0.073396
0.028229,-0.048066,-0.084077,-0.23758,-0.027314,0.51194,0.35935,-0.047456
0.074311,-0.035554,-0.015412,-0.1091,0.0041199,0.090791,-0.034333,-0.052949
0.10971,-0.12863,-0.030671,-0.07126,0.091402,0.08896,-0.06302,-0.063935
0.031891,-0.1268,-0.10971,0.019074,0.12589,0.10239,0.1088,-0.070039
-0.0071717,-0.0028992,-0.070039,-0.092317,0.0010681,0.010834,-0.14084,-0.043183
-0.06363,-0.085603,-0.04715,-0.26627,-0.10697,0.036164,-0.42863,0.0080873
-0.12253,0.11673,-0.14755,-0.25406,0.087434,-0.056001,0.016632,0.043183
-0.12406,0.21592,-0.10605,-0.22293,0.20096,-0.063935,0.2031,0.10483
-0.081941,0.13352,-0.070954,0.015717,0.069429,0.13291,0.12192,0.07248
-0.086213,0.047456,-0.074006,0.017243,0.10941,0.23606,-0.23087,0.0096132
-0.076753,-0.01297,-0.11704,-0.14572,-0.02884,0.47868,-0.19272,0.0053407
-0.049287,-0.041657,-0.053864,-0.019684,-0.58122,0.55131,0.22507,0.043793
-0.0041199,-0.052338,-0.024872,-0.19425,-1.0152,-0.26474,-0.015412,0.035859
-0.010224,-0.0041199,-0.030976,-0.15152,-0.033112,-0.8748,0.027314,0.0090028
-0.017548,-0.04593,0.029755,-0.18509,0.21103,0.39872,0.24918,0.094759
-0.037385,-0.098726,0.03769,-0.23178,-0.019684,0.70848,0.26535,0.095369
0.022126,-0.17075,0.024567,0.63584,0.15488,0.13962,0.05539,0.063325
0.03006,-0.23423,-0.01236,0.30198,0.14786,-0.36515,-0.19303,0.016022
-0.011444,-0.13199,-0.076143,0.077668,0.44388,-0.95842,-0.35142,-0.08835
-0.017243,0.005951,-0.18784,-0.18601,0.53178,-0.35416,-0.055695,-0.083467
0.015717,-0.19577,-0.027619,-0.19364,0.037385,0.78874,0.28855,-0.060883
-0.031586,-0.13901,-0.10452,-0.18143,-0.2269,0.71763,0.2916,-0.0090028
-0.12467,0.089265,-0.1445,-0.21897,-0.12985,0.14664,0.08957,0.051423
-0.08835,0.015412,-0.10452,-0.089265,-0.13321,-0.31083,0.014191,0.091707
-0.081636,0.04715,-0.11154,-0.087129,0.103,-1.1781,0.11398,0.061799
-0.017548,0.032502,-0.041962,-0.070649,0.26566,-0.1268,0.44633,0.08011
-0.044709,0.12192,-0.060578,-0.037079,-0.14054,0.61448,0.2739,0.088045
-0.00076295,0.011444,-0.029145,-0.034333,-0.12558,0.56077,-0.075227,0.023346
-0.019074,0.066072,-0.083467,-0.22202,0.23148,-0.21012,-1.006,-0.057832
0.027619,0.0083925,-0.024872,-0.23911,0.33066,-1.3457,-1.2413,-0.10117
0.095674,-0.13779,0.055695,-0.12589,-0.13169,0.1387,0.14542,-0.0074769
0.0795,-0.097505,-0.033722,-0.048981,-0.25345,0.486,0.15946,0.023957
0.086213,-0.041962,-0.044709,-0.061189,-0.099031,0.49119,0.25925,-0.0056458
0.0071717,-0.10544,0.022431,0.15122,0.20035,0.060578,0.41276,-0.14237
0.023346,-0.17502,-0.044404,0.28458,-0.14084,-0.49393,0.28061,-0.12924
-0.023651,-0.070649,-0.032502,0.049287,-0.077363,-0.10575,0.21866,-0.091707
-0.1146,0.016632,-0.076143,-0.59464,0.08957,0.13077,-0.28916,-0.21256
-0.17624,0.070649,-0.13535,-0.25681,0.11215,0.20615,-0.58824,-0.13596
-0.17044,0.11734,-0.16129,-0.085603,0.022126,0.23148,0.25986,0.061494
-0.1323,0.15396,-0.11856,-0.098726,-0.12131,0.099947,0.47593,0.19425
-0.12161,-0.19272,-0.02182,-0.15702,-0.2092,0.20951,0.99535,0.1976
-0.083467,-0.23087,-0.093538,-0.092927,-0.2031,0.20371,0.84703,0.18021
-0.030976,-0.19455,-0.048676,-0.075837,0.0028992,0.044404,-0.38315,0.20981
0.0035096,-0.0074769,-0.059052,-0.0050355,0.12711,-0.16373,-1.1501,0.17533
-0.0032044,0.059358,-0.13535,-0.085603,0.039826,-0.26505,-0.76219,0.073701
0.037385,0.04593,-0.036774,-0.45304,0.33371,-0.15976,-0.61845,0.027008
0.039826,0.0099184,0.026703,0.38895,0.28214,0.00015259,0.09781,0.043183
0.074311,-0.22751,0.11063,0.50431,-0.0795,0.049592,0.71061,-0.033417
0.045014,-0.046235,-0.08011,-0.28458,-0.14267,0.041047,0.82444,-0.065766
0.057832,-0.037995,-0.041962,-0.23575,-0.063325,0.01236,0.39902,-0.099336
0.017548,-0.058442,0.023957,0.025788,-0.036774,0.014496,-0.50156,-0.20645
-0.045624,-0.11276,0.0083925,-0.02884,0.040131,-0.051728,-1.7351,-0.24735
-0.062715,-0.15824,-0.076753,-0.11276,0.1323,-0.012055,0.033722,-0.06302
-0.024262,0.044099,-0.13443,-0.11978,0.090181,0.1149,1.3429,-0.059968
-0.062715,0.11154,-0.10758,-0.14206,0.023651,0.46616,0.36545,0.010834
-0.0795,0.065156,-0.12558,-0.10971,-0.10117,0.98894,-0.50401,0.092012
-0.12192,0.057221,-0.12955,-0.10727,-0.18204,0.68193,-0.29099,0.077363
-0.13993,0.009308,-0.084077,-0.13046,-0.018769,-0.28672,-0.52445,0.087739
-0.092317,0.04593,-0.1323,-0.06363,0.065766,-1.7159,-0.53513,0.14267
-0.10636,0.092622,-0.14115,-0.31632,0.15457,-1.9866,0.35508,0.14786
-0.096895,0.021515,-0.035859,-0.092317,0.1265,-0.13077,0.80705,0.13291
-0.084993,0.011444,-0.056916,-0.086824,-0.28244,1.0997,0.87724,0.15122
-0.075837,-0.10391,0.015412,0.085908,-0.37552,0.89372,0.81163,0.10422
0.034028,-0.26291,0.10086,0.44755,-0.01297,-0.053559,-0.14664,-0.023041
0.07126,-0.16403,0.00076295,0.14115,0.34562,-0.21683,-0.74052,-0.05478
0.094148,-0.080415,-0.025483,0.059968,0.21836,0.068208,0.53269,0.052949
0.14267,-0.062715,-0.014801,-0.26505,0.11795,-0.011749,0.5977,0.022126
0.14328,-0.092622,0.015412,-0.69505,0.14084,-0.21225,-0.42649,-0.23453
0.059663,-0.086824,-0.082856,-0.18418,0.082551,-0.28122,-1.4971,-0.26535
-0.02121,-0.084382,-0.10452,-0.15518,-0.21073,-0.081941,-1.071,-0.16495
-0.083162,-0.087739,-0.066682,-0.26627,-0.25711,0.024567,0.062104,-0.041047
-0.0972,-0.091402,-0.092012,0.38224,0.14939,0.22629,0.55589,0.066072
-0.10636,0.073396,-0.11032,0.040131,0.17563,0.72282,0.44907,0.094453
-0.027008,0.12955,-0.16526,-0.083467,-0.054475,0.45792,0.37644,0.16739
0.058137,0.095674,-0.13291,-0.074617,0.040131,0.095369,0.30411,0.12528
0.023957,-0.011444,-0.10513,-0.10758,-0.0074769,0.0077821,0.14603,-0.053254
-0.015106,-0.0022889,-0.0080873,-0.19883,-0.12131,-0.71855,-0.14237,-0.066072
-0.0013733,-0.098116,0.0056458,-0.042573,-0.14633,-0.33921,0.066377,0.038911
-0.059052,-0.014496,-0.051728,-0.090791,-0.01236,0.66941,0.29892,-0.0065614
-0.11246,0.057832,-0.038911,0.0044251,0.049897,0.31327,0.14328,-0.035859
-0.099947,0.019379,-0.025788,-0.072175,-0.051728,0.43961,0.21866,0.00045777
-0.02121,-0.15274,-0.014496,-0.011139,-0.052644,0.12589,0.095369,0.016632
-0.0022889,-0.12467,-0.024872,-0.17197,0.060578,-1.2053,-0.55589,-0.061799
0.022126,-0.052033,-0.032807,0.11612,0.1384,-0.51926,-0.34775,-0.019379
-0.033417,-0.022736,0.014801,0.024872,0.18448,0.71061,-0.048676,0.00076295
-0.013581,-0.0074769,-0.023651,-0.20218,0.15091,-0.3331,-0.26413,0.027008
-0.02121,-0.056916,-0.077363,-0.1033,0.0383,-0.37095,0.18143,0.11795
-0.1207,-0.084993,-0.15091,-0.13657,-0.076143,0.17502,0.51804,0.085298
-0.16312,-0.087434,-0.12039,-0.13107,-0.057221,0.3212,0.42466,0.10544
-0.10605,-0.10483,-0.07126,-0.10666,-0.039521,0.52201,-0.17227,0.062409
-0.1387,-0.0013733,-0.088045,-0.060273,-0.030365,-0.35416,-0.74815,0.02121
-0.17563,0.17838,-0.12558,-0.10086,0.029755,-0.45365,-0.30808,0.053559
-0.12955,0.23178,-0.11826,-0.13993,0.11185,0.12741,0.1854,0.11673
-0.057527,0.14511,-0.10605,-0.11765,0.12284,0.13901,0.21012,0.081941
0.03769,-0.042573,0.010529,-0.023041,0.015412,0.13077,0.11856,0.011444
0.050202,-0.061799,0.039521,-0.017548,-0.44541,0.13931,0.13413,-0.066072
0.033417,-0.097505,0.047761,-0.060273,-0.38285,0.094759,0.12284,-0.036774
0.086213,-0.39597,0.054475,-0.032502,0.20706,0.011444,0.13809,0.013886
0.14298,-0.27481,-0.016938,-0.06424,0.043183,-0.043183,0.090181,0.0053407
0.12589,-0.074922,-0.11612,-0.121,0.10758,-0.011139,0.050507,0.0053407
0.067903,0.0044251,-0.13077,-0.085298,0.10361,0.073396,0.14237,-0.031891
0.037079,-0.067597,-0.04654,-0.064851,0.039216,0.28855,0.0013733,0.0080873
-0.016327,-0.10086,-0.0090028,-0.1207,0.066682,0.19425,0.17929,0.072786
-0.013275,-0.062104,-0.052033,-0.024872,0.0099184,0.045014,0.73198,0.042878
-0.048676,0.026093,-0.075837,0.033417,-0.082246,0.025177,0.91966,-0.057832
-0.048676,-0.0074769,-0.060273,-0.074617,0.07126,-0.20249,0.42344,-0.11337
-0.043793,-0.030976,-0.14725,-0.14694,0.10697,-0.25864,-0.85618,-0.15152
-0.041352,0.023957,-0.16068,-0.12924,0.26993,-0.41764,-2.1761,-0.19486
-0.083467,0.14633,-0.091402,-0.17288,0.061494,0.10147,-0.42893,0.009308
-0.13046,0.12863,-0.10483,-0.13138,-0.16587,0.53117,0.081636,0.086519
-0.096284,0.05417,-0.044709,-0.06363,-0.2266,0.31815,-0.14633,0.033112
-0.081025,-0.018769,0.0013733,-0.030671,-0.15824,0.030671,0.11978,0.043183
-0.048371,-0.1384,-0.036774,-0.051728,-0.15824,-0.72831,-0.33677,-0.016938
-0.056001,-0.042267,0.0096132,-0.34043,0.070649,-0.42252,0.6453,0.050202
0.020905,-0.13077,0.027619,0.40635,0.39078,-0.19059,0.75975,0.041352
0.10056,-0.13596,-0.041962,-0.0053407,0.02945,-0.18601,-0.12924,-0.0022889
0.061799,-0.084993,-0.064546,-0.056306,-0.028229,0.15335,-0.62821,-0.051423
0.0077821,0.073091,-0.08072,-0.18906,0.0050355,0.22477,0.093538,-0.057527
-0.059358,0.073091,-0.031891,-0.085298,0.042267,0.52842,0.31083,-0.014801
-0.070649,0.00045777,-0.12619,-0.13077,-0.11337,0.97276,0.63157,0.10636
0.00045777,-0.052338,0.059052,-0.075227,-0.22019,0.78325,0.30655,0.11856
0.051118,-0.1796,-0.16007,0.031891,-0.19883,0.59648,-0.00045777,0.10483
-0.0028992,-0.24887,-0.11856,-0.014496,-0.039216,0.76249,0.84123,0.009308
-0.01297,-0.10178,-0.0096132,-0.0090028,0.31998,-0.35355,0.58824,-0.053254
-0.056001,0.02945,0.030365,-0.11795,0.67765,-1.899,-0.73747,-0.093233
-0.10941,0.092012,-0.15091,0.068818,0.34592,-1.0201,-1.841,-0.10758
-0.1738,0.25528,-0.14328,-0.392,-0.089265,-0.42405,-0.7039,0.036164
-0.079805,-0.010529,-0.036774,-0.41428,0.02121,-0.43168,0.63523,0.16464
-0.018769,-0.076448,-0.092012,-0.032502,-0.15183,1.2273,0.89769,0.14084
-0.02884,-0.029755,-0.060273,0.06302,-0.28367,0.69627,0.20035,0.026703
0.035248,-0.16678,0.034638,-0.262,0.075532,-0.16007,0.017548,0.012665
0.090791,-0.1976,0.026703,-0.41672,0.027619,0.02884,-0.37613,-0.016327
0.10452,-0.13016,0.0056458,0.20981,-0.086824,0.0972,-0.8748,-0.10819
0.040131,-0.053559,0.025788,0.6688,-0.13931,0.2797,0.34867,-0.066987
-0.0206,-0.10361,-0.035554,-0.22721,-0.15854,0.22477,0.29068,0.025177
-0.04654,-0.0041199,-0.10941,-0.21714,0.02945,0.053559,0.11398,0.10056
-0.075532,0.15366,-0.13474,0.089876,0.11063,0.11398,0.40269,0.099641
-0.13687,0.15213,-0.15122,-0.11765,0.030976,0.10971,0.47379,0.038911
-0.14359,-0.0056458,-0.044099,-0.14969,0.08011,-0.011444,-0.13321,-0.0010681
-0.14847,0.055085,-0.13779,-0.20951,0.059968,0.18753,-0.42496,0.011749
-0.093843,0.052033,-0.11124,-0.18784,-0.023651,0.05478,0.19242,0.02121
-0.044404,-0.11582,-0.016022,-0.14328,0.036164,-0.3621,0.39689,0.099947
-0.0065614,-0.18967,-0.0795,-0.12161,-0.071565,0.049592,0.19394,0.069123
0.013275,-0.046845,-0.095979,0.013581,-0.27634,0.15122,-0.63676,0.023957
0.013886,0.00045777,-0.051118,0.10391,-0.18906,0.16403,0.24643,0.010834
-0.030671,-0.035554,-0.045624,-0.0383,0.0383,0.47166,1.4144,0.019074
0.020905,-0.074311,0.0016785,0.038911,0.063325,0.69718,1.2776,0.0047303
-0.011444,0.0077821,-0.01236,0.14115,-0.20035,0.4506,0.22202,-0.081636
-0.041657,0.031281,-0.028534,-0.12924,-0.02121,-0.50187,-1.2242,-0.16159
0.0056458,-0.1207,-0.014801,-0.42252,0.38743,-1.0552,-2.2072,-0.10208
0.036774,-0.17899,-0.0019837,-0.15885,0.26352,-1.5312,-0.8809,0.0086976
0.035248,-0.23301,0.052949,0.1854,0.10544,-0.63584,0.089876,0.041047
0.013886,-0.074006,-0.083467,-0.010224,0.075532,0.53758,0.88579,-0.058747
-0.022431,0.086213,-0.12558,-0.1738,0.21042,0.25467,0.57877,-0.020294
-0.075227,0.091707,-0.077058,-0.0032044,0.30777,0.046235,0.41276,0.019684
-0.091707,0.07248,-0.0795,-0.34592,0.28428,0.065156,0.26932,0.091402
-0.01297,-0.13901,-0.076753,0.14145,0.099641,0.17014,-0.092012,0.026093
0.0080873,-0.18387,-0.10483,-0.12558,-0.43229,0.31815,0.067903,-0.047456
-0.049287,-0.032197,-0.10483,-0.048676,-0.88884,0.092927,0.40726,-0.0044251
-0.061494,-0.0062562,-0.098116,0.038605,-0.54093,-0.021515,-0.29038,-0.0074769
0.086213,0.035554,-0.073396,-0.23941,0.059358,0.0053407,-0.90318,0.12039
0.025177,0.15824,-0.086519,-0.34348,0.19333,0.057221,0.44175,0.18692
-0.044404,0.14328,-0.10147,-0.19089,0.14115,0.082551,0.72343,0.18967
-0.10452,0.043183,-0.018158,-0.046235,0.19883,-0.058442,0.15427,0.075837
-0.13169,-0.078279,-0.012055,0.0028992,0.19242,-0.1146,-0.19394,-0.095064
-0.07126,-0.036469,0.0065614,-0.056306,0.10605,0.12131,0.4564,-0.039521
-0.11032,-0.019379,0.043793,0.17533,0.0019837,0.26047,-0.23026,-0.14359
-0.051423,-0.097505,0.00076295,-0.12711,-0.028534,-0.21744,-1.1235,-0.16068
-0.041352,-0.077363,-0.10819,-0.18784,0.012055,-0.21103,-0.069123,-0.029755
-0.076143,-0.03769,-0.068513,-0.061189,0.027924,0.1622,0.54063,-0.010224
-0.027314,-0.2858,-0.074311,-0.037385,0.019074,0.26566,0.28367,0.043488
0.027008,-0.3328,-0.061189,-0.083162,-0.058747,-0.22904,-0.23453,0.083772
-0.023651,-0.020294,-0.04654,-0.045319,-0.10422,-0.10025,-0.048371,0.041352
-0.059052,-0.02945,-0.092012,-0.0022889,-0.050813,0.09781,-0.10239,0.019684
-0.058137,0.065461,-0.097505,-0.060273,0.050202,0.11521,-0.041047,0.041657
-0.06302,0.14725,-0.13687,-0.52293,0.64836,0.0086976,0.23636,0.11795
-0.016327,0.15274,-0.049897,0.27573,0.046845,-0.014191,0.21347,0.15152
-0.0047303,0.089265,-0.048981,-0.0083925,0.015106,-0.067597,0.11673,0.12161
0.011444,0.011444,-0.099031,-0.24125,-0.14389,0.065156,0.15122,0.067292
0.067903,-0.061494,-0.018769,0.14023,-0.62669,0.17227,0.1207,0.053254
0.11002,-0.1387,-0.061189,-0.11704,0.13809,-0.010834,-0.077974,-0.035554
0.11643,-0.11612,-0.016632,-0.10636,0.12558,-0.07126,-0.023651,-0.11643
0.12436,-0.18936,0.052644,-0.20584,0.043183,-0.084077,0.0383,-0.14664
0.10208,-0.36362,0.081025,-0.017548,0.10819,-0.10605,-0.21653,-0.15213
0.014801,-0.10758,-0.05417,0.1915,0.085908,-0.13748,-0.029145,-0.1796
-0.10758,0.12039,-0.094148,0.0016785,0.085908,-0.084688,0.29465,-0.095674
-0.085908,0.015412,-0.084077,-0.047761,0.060273,0.027924,0.16739,0.059968
-0.044404,-0.023957,-0.14115,-0.18173,0.0013733,-0.070344,-0.29313,0.037079
-0.053254,-0.024567,-0.088045,-0.15885,-0.045624,0.13901,-0.38254,-0.014191
-0.14084,0.082551,-0.12161,-0.23392,-0.1091,0.24765,-0.053559,0.043488
-0.13779,0.086213,-0.10086,-0.16464,-0.10208,0.13657,-0.42466,0.11765
-0.031586,-0.0062562,-0.082856,0.019684,-0.066072,0.0038148,-0.4686,0.11093
-0.020294,0.029755,-0.121,-0.19272,-0.097505,-0.0099184,0.22385,0.037385
0.019074,-0.041962,-0.061189,-0.12436,0.074617,-0.17441,0.5388,0.085298
0.031891,0.062104,-0.026703,-0.052644,0.3386,-0.41276,0.22904,0.13718
-0.0383,0.081941,0.002594,0.015106,-0.0035096,-0.019989,-0.086824,0.059052
-0.048981,-0.079805,-0.022126,0.02182,-0.040742,0.086519,-0.082856,0.045624
-0.019379,-0.1564,-0.033112,-0.18906,0.0206,0.02945,-0.27665,0.0099184
-0.010224,-0.076753,0.005951,0.47166,-0.013581,0.14542,0.070039,-0.06363
-0.010224,-0.10483,-0.03769,0.13535,-0.10483,0.44358,0.44083,-0.10117
-0.10239,-0.076143,-0.016327,-0.41093,-0.23911,0.34745,0.28641,-0.13138
-0.067903,-0.12497,-0.0035096,-0.13199,-0.042573,0.08072,0.24979,-0.027619
-0.049897,-0.096895,-0.027619,-0.13504,0.18418,0.75853,0.33646,0.025788
-0.081331,-0.031891,-0.11917,-0.13169,0.061189,0.51225,-0.011139,0.017853
-0.11154,0.044099,-0.11612,-0.074617,-0.014191,-0.46708,-0.75029,-0.070039
-0.095979,0.12558,-0.15579,-0.1735,0.0038148,-1.2102,-0.47532,-0.03769
-0.094453,0.22202,-0.11978,-0.20401,0.30167,-1.5303,0.17166,-0.052033
-0.077363,0.09781,-0.058747,-0.044099,0.19638,-1.2706,-0.70481,-0.074006
-0.016632,-0.023346,-0.032197,0.02884,-0.14725,0.18601,-0.79881,0.011749
0.0047303,-0.049592,-0.14481,-0.011444,-0.081331,0.72129,0.21592,0.10971
-0.0010681,-0.025483,-0.074617,-0.15579,0.0050355,0.30228,-0.04715,0.11032
-0.058137,-0.094148,-0.085908,-0.14908,0.073396,0.30228,0.34073,0.095674
-0.041657,-0.28031,0.03769,-0.082246,-0.18448,0.45304,0.37003,0.076448
0.064546,-0.32151,-0.010834,0.025177,-0.17075,0.37827,0.39994,0.15335
0.087739,-0.12985,0.052033,-0.073701,0.068513,0.26291,0.28611,0.079805
0.049897,-0.084382,0.018158,-0.22293,0.13626,0.15274,0.52781,0.037079
0.070649,-0.066682,-0.018769,-0.1326,0.099641,-0.10544,0.72679,0.10422
0.028229,0.034638,-0.042267,-0.046845,0.009308,-0.010224,0.24338,-0.073396
-0.025788,0.057527,-0.048676,-0.0019837,-0.1323,-0.035554,-0.51957,-0.13321
-0.011139,-0.073701,-0.1384,-0.05417,-0.26078,0.095674,-1.3643,-0.061494
0.013275,-0.11154,-0.083467,0.18845,-0.10849,0.052949,-0.61021,-0.15183
-0.05539,-0.038911,-0.062715,0.08072,-0.016938,0.30503,0.87175,-0.02884
-0.12161,0.067903,-0.10727,-0.10361,0.067292,0.28763,1.3329,0.16648
-0.11582,0.051423,-0.072175,-0.073396,0.31388,-0.13626,0.31662,0.27512
-0.038605,0.098726,-0.15976,-0.14755,0.46555,-0.45151,-0.94865,0.25315
-0.030365,0.083467,-0.16159,-0.20706,0.13474,-0.309,-0.2916,0.0080873
-0.060883,0.076143,-0.099641,-0.14298,0.0038148,0.019074,-1.0967,-0.21195
-0.077974,-0.040742,0.011749,-0.10147,-0.16648,0.37003,-1.0524,-0.15183
-0.073091,-0.14145,0.043793,-0.020905,-0.1799,-0.5922,-0.28336,-0.10422
-0.060883,-0.088655,-0.018158,-0.061799,0.0035096,-0.63767,-0.28122,-0.041047
-0.089876,0.16129,-0.10758,-0.15061,0.095674,-0.74937,0.36057,0.023346
-0.04593,-0.0044251,0.0206,0.019989,-0.027008,0.38285,0.87297,0.095674
-0.0019837,-0.15335,0.024262,0.005951,-0.04715,0.43381,0.34867,0.044404
0.061494,-0.27054,0.043793,-0.15763,0.0056458,0.05417,-0.085908,-0.043183
0.14023,-0.25559,-0.04654,-0.019074,0.017243,0.19577,0.40482,-0.098421
0.075532,-0.092927,-0.043183,-0.08072,-0.0056458,0.28214,0.22751,-0.1265
0.022736,0.066377,-0.064546,0.15702,-0.088045,0.31632,0.089876,-0.103
0.025788,0.010224,-0.16342,-0.32944,0.050507,0.043183,0.23362,-0.0013733
0.019684,-0.14298,-0.16342,-0.30137,0.1442,-0.015717,0.37034,0.048371
-0.054475,0.14633,-0.1564,-0.57908,0.058137,0.045014,0.49027,0.081941
-0.069429,0.053559,-0.053254,0.16159,-0.052949,0.10666,0.29129,0.096284
-0.13474,0.012055,-0.060578,0.44511,-0.16098,0.089876,0.52598,0.089265
-0.082246,-0.049897,-0.13443,-0.103,-0.22599,0.045624,0.26841,0.089265
-0.027619,-0.0038148,-0.084382,-0.15274,-0.23728,-0.061494,-0.55222,0.041657
-0.02884,-0.01297,-0.0056458,0.0016785,-0.046845,-0.1146,-1.1745,-0.05478
-0.11032,-0.032197,-0.045624,-0.058137,0.439,-0.16007,-1.3698,-0.08072
-0.063325,-0.00015259,0.020905,-0.14481,0.42649,-0.043488,0.17014,0.0383
-0.065156,0.028229,-0.02884,-0.1387,0.21653,-0.073396,0.24033,0.103
-0.055085,-0.078584,0.04654,0.0035096,-0.0071717,0.011444,-0.32425,0.027008
-0.036469,-0.1503,0.04654,0.066987,-0.096284,-0.10575,0.22965,0.039216
0.024262,-0.056611,-0.070954,0.10483,-0.26047,0.10391,0.90654,0.12497
0.059052,-0.08011,-0.026703,-0.15366,-0.2031,0.13535,0.34592,0.032197
0.035554,-0.12985,-0.060883,-0.37583,0.048371,0.19608,-0.82841,-0.068818
0.018158,-0.052644,-0.12985,-0.13107,0.040436,0.17105,-0.25986,0.018769
-0.058137,0.087129,-0.079194,0.017243,-0.0056458,-0.092317,0.35019,0.073396
-0.15305,0.055695,-0.11063,0.13169,0.00045777,-0.10147,0.018769,0.00045777
-0.16678,0.070039,-0.041047,-0.053559,0.044099,-0.12009,0.005951,0.031586
-0.14694,-0.060578,-0.079194,-0.17014,0.022736,-0.031891,0.045319,0.03769
-0.081331,-0.048371,-0.15274,-0.22965,0.025177,-0.051423,-0.10971,0.005951
-0.0028992,0.16861,-0.17716,-0.22141,0.019684,-0.01297,0.07126,0.0028992
0.040436,0.075227,-0.08011,-0.14694,-0.077668,0.067597,0.51896,-0.062715
0.067292,0.022736,0.0032044,0.0044251,-0.061189,0.045014,0.18235,-0.035554
0.095674,-0.036469,-0.0086976,0.17227,-0.0019837,-0.025483,-0.47318,-0.019684
0.11643,-0.14755,-0.0062562,0.121,0.033417,-0.043183,-0.40696,-0.041352
0.088655,-0.32425,0.0077821,-0.0028992,-0.0032044,0.024567,0.0013733,-0.013581
0.15824,-0.35172,0.0047303,-0.29862,0.03769,0.036774,0.19089,0.02121
0.15396,-0.3328,0.0071717,-0.11276,0.22873,0.045319,0.20188,-0.033722
0.027619,-0.090791,-0.022736,-0.085298,0.22904,0.065766,0.33677,-0.090181
-0.036774,-0.00045777,-0.053864,-0.22202,0.042267,0.17502,0.50187,-0.030671
-0.099641,0.04715,-0.054475,-0.17288,-0.59251,0.26383,0.11032,-0.08011
-0.22812,0.049287,-0.062104,0.52903,-0.28977,0.032502,-0.20951,-0.099947
-0.23545,0.085908,-0.17197,-0.28305,0.24094,-0.15396,0.041657,0.026703
-0.20066,0.19364,-0.16129,-0.25101,0.24308,-0.31296,-0.037079,0.078279
-0.18326,0.27878,-0.14542,-0.16922,0.42649,-0.19608,-0.0013733,0.045319
-0.14481,0.22782,-0.12528,-0.16068,-0.040436,0.37675,-0.3859,0.053254
-0.12039,0.12955,-0.075227,-0.065156,-0.31815,0.70695,-0.76219,0.063325
-0.15793,0.15793,-0.074311,-0.15366,-0.27054,0.24155,-0.30594,0.085603
-0.002594,-0.12345,-0.030365,0.091096,-0.10147,0.028229,0.56046,0.22202
0.13046,-0.28824,0.067597,0.013581,-0.14786,0.21134,0.36942,0.26749
0.12192,-0.43381,0.099947,-0.057221,0.28183,0.40146,0.43595,0.15915
0.10086,-0.38895,0.033417,-0.014801,0.55802,-0.72038,-0.26902,0.048066
0.045014,-0.16892,-0.048371,-0.11582,0.095369,-2.2707,-1.3298,-0.059052
0.068208,-0.066377,-0.027008,-0.092927,-0.11368,-1.0384,-0.22843,-0.10727
0.029145,0.012665,-0.057832,-0.26291,-0.069123,0.84031,0.41062,-0.12131
0.010529,0.065461,-0.041962,0.19333,-0.044709,0.58396,0.20096,-0.092927
-0.0050355,0.049897,-0.045014,-0.06363,0.18326,0.34623,-0.045319,-0.064851
-0.027314,-0.019684,-0.083162,-0.17288,0.085603,0.12161,-0.39475,-0.086213
-0.070954,0.0206,-0.11215,-0.082246,-0.11948,0.39933,0.18265,-0.018769
-0.072175,0.053254,-0.12894,-0.022431,-0.064546,0.44785,0.47593,0.00045777
-0.053559,-0.052033,-0.096895,-0.16129,-0.043488,0.20432,0.3682,0.0016785
-0.04715,-0.065766,-0.15183,-0.26017,-0.027314,0.1207,0.48051,0.072175
0.059663,-0.10544,-0.056916,0.076143,-0.050507,-0.0013733,0.27359,0.088045
0.075227,0.060578,-0.11612,0.041657,-0.041047,-0.23239,0.26383,-0.012055
