-0.038605,0.070344,-0.062409,-0.40055,0.049592,-0.079194,-0.59495,-0.022736
-0.048371,0.017853,-0.021515,0.20981,-0.023041,-0.17441,-0.61692,0.059358
-0.044709,0.0062562,0.01236,0.12375,0.0077821,-0.08011,-0.060883,0.019989
-0.043793,-0.019989,0.031586,-0.033112,0.10605,0.024262,0.043183,-0.0062562
-0.04654,-0.077974,0.02884,-0.10697,0.011444,0.095979,0.15427,-0.0090028
-0.019379,-0.12222,0.023957,-0.14054,-0.01297,0.05539,0.16892,-0.049287
-0.0041199,-0.15976,0.019684,-0.13687,0.042267,0.070649,0.10086,-0.07187
0.011749,-0.16342,0.015717,-0.035554,0.033112,0.062715,0.067903,-0.092317
0.024872,-0.14023,-0.035859,0.056001,-0.083467,-0.052338,-0.0074769,-0.069123
-0.00045777,-0.010529,-0.095369,-0.103,0.036164,-0.0074769,0.06424,-0.03769
-0.043793,-0.0062562,-0.121,-0.14572,0.066682,-0.02884,0.041962,-0.041657
-0.092927,0.002594,-0.12528,-0.076753,-0.022736,0.0068666,0.065766,0.045624
-0.056611,0.036164,-0.19516,-0.15518,0.07248,-0.0062562,0.1146,0.17502
-0.057832,0.023651,-0.12436,0.14603,0.049287,-0.032197,0.054475,0.081331
-0.067292,0.069734,-0.098726,-0.047761,-0.0206,-0.0041199,-0.076753,0.036164
-0.069123,0.062104,-0.097505,0.013581,-0.10086,0.10971,-0.20645,0.048981
-0.0071717,-0.00015259,-0.086824,-0.24979,-0.043183,0.12924,-0.061189,0.066682
-0.027619,-0.056001,-0.032197,-0.38651,0.14786,0.04654,0.16037,0.033722
-0.052033,-0.034333,-0.022736,-0.14298,-0.042878,0.11917,0.22812,0.075532
-0.053864,-0.014801,-0.014496,-0.045319,-0.11765,0.045014,0.18662,0.10361
0.066377,-0.17899,0.050813,0.25864,-0.0096132,-0.065461,-0.10391,0.027008
0.081331,-0.1564,0.032807,-0.20523,0.0028992,-0.1973,-0.20432,-0.088045
0.016022,-0.11978,0.030976,-0.30594,-0.011139,-0.085298,-0.14633,-0.21653
0.034943,-0.10758,-0.0074769,0.16495,-0.062715,0.23362,0.059052,-0.12924
0.017548,-0.010834,-0.049897,-0.30198,0.016632,0.10452,0.15549,-0.030671
-0.010529,-0.016938,-0.066987,0.056611,0.075837,-0.13687,-0.030365,-0.033722
-0.032807,0.02182,-0.077363,-0.0090028,0.38407,-0.31998,-0.073396,-0.0044251
-0.05539,0.045319,-0.12039,0.041047,0.41367,-0.25284,-0.038911,-0.011444
0.00076295,-0.10269,-0.10208,-0.058747,0.20829,0.0383,-0.028229,-0.0080873
-0.02945,-0.12039,-0.11154,-0.16983,-0.22995,0.11002,0.089265,0.052033
-0.10178,-0.044404,-0.15579,-0.23117,-0.4036,0.10483,0.11398,0.026093
-0.083772,-0.014496,-0.11826,-0.09659,0.039216,-0.041047,0.16129,0.13474
-0.11826,0.094148,-0.11887,-0.032502,-0.073701,-0.30686,0.11795,0.16861
-0.13657,0.13748,-0.10086,-0.056611,-0.0206,0.034028,-0.029145,0.089876
-0.086213,0.053254,-0.04715,-0.023041,-0.00076295,0.39963,-0.13626,0.13901
-0.010224,-0.05417,0.0016785,-0.078889,-0.10941,0.47501,0.16617,0.067597
-0.039216,-0.047761,0.029755,-0.18418,-0.1146,0.35508,0.051118,-0.069429
-0.018769,-0.066682,0.036774,-0.048676,-0.082246,0.25284,-0.30442,-0.07187
-0.019074,-0.096895,0.012665,-0.044709,0.019684,-0.10269,-0.23911,-0.0050355
0.0383,-0.14145,0.033722,0.0019837,0.10147,-0.99077,-0.14572,-0.01236
0.12284,-0.19699,0.013275,-0.082246,0.073396,-1.0451,-0.030671,-0.059663
0.072175,-0.11887,-0.016632,0.01297,0.084077,0.13474,0.093843,-0.103
-0.027619,0.011139,-0.11643,-0.1973,0.080415,0.87572,0.090181,-0.10208
-0.035554,-0.005951,-0.10025,0.074311,-0.052033,0.64286,0.05417,-0.012055
-0.077058,0.10025,-0.14481,-0.21775,0.087739,-0.41428,0.015106,0.048371
-0.10605,0.12009,-0.1445,-0.24399,0.14267,-0.19669,0.066072,0.052949
-0.054475,0.0013733,-0.14572,-0.09659,-0.12375,0.40482,0.12436,0.06363
-0.068208,-0.0028992,-0.1387,-0.096284,-0.035554,0.067292,0.020294,-0.041047
-0.10208,-0.063325,-0.052949,-0.022126,-0.032197,-0.32822,-0.029145,-0.024872
-0.065766,-0.07248,-0.0972,-0.0019837,-0.1033,-0.63981,0.026703,0.093538
-0.055085,-0.075532,-0.030976,-0.021515,0.059358,0.14298,0.044099,0.091402
-0.033112,-0.024262,-0.039826,-0.095369,0.059052,0.24369,0.04654,0.065461
-0.024262,0.014496,0.0074769,-0.043183,0.010529,0.11521,0.048066,0.028229
-0.009308,-0.036164,0.010834,-0.11154,-0.0019837,0.1088,0.02884,-0.055085
0.0038148,-0.091402,0.017243,-0.10666,0.012055,0.062715,0.0077821,-0.04715
-0.0044251,-0.095674,0.034333,0.0035096,-0.045624,0.1033,0.083467,0.012665
0.0080873,-0.1207,0.0016785,-0.0062562,-0.025177,0.044099,0.079805,0.042267
0.032197,-0.10086,0.0035096,-0.17929,0.20554,-0.064546,-0.039521,-0.0050355
0.066682,-0.10971,-0.035554,0.063325,0.15335,-0.022126,0.02945,0.0068666
0.013275,-0.026398,-0.068208,-0.13535,-0.023041,0.06302,0.042267,-0.018158
-0.047761,-0.019989,-0.14084,-0.24125,-0.13352,0.20035,0.04715,-0.010224
-0.064546,0.036469,-0.12741,0.19913,-0.0035096,0.068208,0.060273,0.077668
-0.049592,0.055695,-0.17136,-0.43503,0.1854,0.0086976,-0.026398,0.087739
-0.02945,0.0206,-0.15335,-0.12741,-0.095064,0.095674,-0.049287,0.0074769
-0.064851,0.044404,-0.13993,-0.026093,-0.076753,-0.023346,-0.17838,-0.081025
-0.053254,0.029755,-0.099641,-0.032197,-0.062715,-0.058442,-0.14206,-0.043488
-0.061494,0.026398,-0.10361,0.17716,-0.033112,-0.14176,-0.08957,-0.02945
-0.11429,0.055085,-0.045624,-0.30411,0.041352,0.0206,0.081941,0.023957
-0.028534,-0.086824,-0.0090028,-0.097505,-0.0086976,0.0099184,0.18875,0.11246
0.048371,-0.121,0.05417,-0.00045777,0.0047303,-0.026093,0.06424,0.082551
0.06424,-0.22995,0.069734,-0.14389,0.19486,0.050507,-0.020905,0.030976
0.092012,-0.1442,0.013886,-0.11704,0.015717,0.094759,0.070649,0.017853
0.066072,-0.11429,0.043793,-0.1088,-0.04593,0.058442,0.073701,-0.1326
0.044404,-0.13901,0.0019837,0.08896,-0.053864,0.083467,0.031586,-0.15488
-0.022736,-0.043488,-0.04654,0.15213,-0.010529,0.074311,0.023346,-0.08072
-0.057832,-0.018158,-0.058442,-0.12467,0.026093,0.016022,-0.0086976,-0.041352
-0.081025,-0.034028,-0.083162,-0.30106,-0.023651,-0.055695,-0.083162,-0.0074769
-0.12009,0.056001,-0.15061,-0.52811,0.075532,-0.47471,-0.074617,0.039216
-0.10391,0.0206,-0.15885,-0.43107,0.083772,-0.41611,0.08957,0.052033
-0.13931,0.087739,-0.13107,1.0857,-0.10575,0.17227,0.28244,0.065156
-0.086213,0.023346,-0.12711,-0.11795,0.06363,0.31022,0.15702,0.098116
-0.063325,0.050202,-0.13291,-0.25589,0.037385,0.06302,-0.20554,0.086519
-0.066682,0.0206,-0.11032,-0.069123,0.051118,-0.025788,-0.4686,0.051423
-0.034333,0.0077821,-0.055695,-0.26352,0.023041,0.060273,0.056306,0.14511
-0.0071717,-0.025483,-0.034638,-0.075227,-0.036469,0.059052,0.35294,0.096284
0.034943,-0.071565,0.0062562,0.12039,-0.11429,0.052338,0.12222,0.055695
0.0090028,-0.10208,0.020294,-0.10452,0.0010681,0.06302,-0.34562,-0.041047
0.0010681,-0.084077,0.014191,-0.056611,0.061189,0.031281,-0.35203,0.01297
0.0077821,-0.05478,0.024262,-0.070344,0.085298,-0.066987,0.037079,0.027924
0.032197,-0.11429,0.028229,-0.04654,0.082246,-0.0035096,0.24033,-0.052949
0.030365,-0.13565,-0.002594,-0.086519,0.090486,0.061189,0.15122,-0.082246
0.019684,-0.10422,-0.023651,-0.091707,0.08835,0.014191,-0.11643,-0.093233
0.0032044,-0.046235,-0.081331,-0.066987,-0.11246,0.045624,-0.10758,-0.031281
-0.027619,-0.036164,-0.10147,0.017243,-0.32029,0.099031,-0.067597,-0.038911
-0.073396,0.0016785,-0.15518,-0.25284,-0.2623,-0.057527,-0.10758,-0.030365
-0.051728,0.044099,-0.15274,-0.059052,0.030365,-0.0086976,0.0071717,-0.019684
-0.093843,0.073396,-0.14176,0.12894,0.21866,0.032197,0.30472,-0.030365
-0.081941,0.018463,-0.11032,-0.10727,0.2089,0.08072,0.32425,-0.07126
-0.086213,0.026703,-0.1384,-0.30594,0.074617,0.034638,0.13993,-0.0010681
-0.048371,-0.065461,-0.05417,-0.30503,0.047761,0.15396,0.15152,0.10147
-0.071565,-0.014496,-0.052338,-0.028534,-0.20249,0.27207,0.23728,0.12039
-0.0062562,-0.030671,-0.015412,-0.15488,-0.012055,-0.22202,-0.28092,0.11429
0.025177,-0.071565,-0.005951,0.022126,0.043793,-0.87236,-0.2855,0.066377
0.036774,-0.035859,0.0056458,-0.046235,0.1149,-0.57755,-0.10727,-0.009308
-0.027008,-0.030365,0.056916,-0.014191,0.046845,0.53513,-0.0083925,-0.021515
-0.0795,-0.036164,0.036164,0.0028992,-0.066987,0.51987,0.3209,0.0053407
-0.02884,-0.10208,0.0022889,-0.013581,0.036164,0.45304,0.28794,0.050202
0.015717,-0.12558,0.0022889,-0.068208,-0.0041199,0.52506,-0.21805,0.011749
-0.0096132,-0.095674,-0.04654,-0.055085,-0.023651,-0.070344,-0.65385,-0.012665
-0.039216,-0.061799,-0.066682,0.10971,0.014191,-0.81468,-0.18936,-0.048676
-0.059358,0.022736,-0.1735,-0.19303,0.11246,-0.65568,0.13535,-0.022126
-0.058747,0.052338,-0.16495,-0.103,0.20493,0.16129,0.21744,0.028229
-0.055695,0.015717,-0.1387,0.023346,0.34562,-0.084077,0.15488,0.069429
-0.077974,-0.010224,-0.11704,-0.34165,-0.066072,0.10758,0.068513,0.033112
-0.045014,0.026398,-0.11246,-0.11795,-0.53971,0.32181,0.054475,0.098726
-0.0206,-0.0096132,-0.088655,0.121,-0.078279,-0.13169,0.010529,0.079194
0.034028,-0.11246,-0.081331,-0.091707,-0.09781,0.16617,0.053864,0.0028992
0.080415,-0.15793,-0.0206,-0.1445,-0.043488,0.041047,0.0071717,-0.033417
0.033722,-0.036164,-0.040742,-0.12924,0.23178,-0.57511,-0.016632,-0.029755
0.078584,-0.073701,-0.005951,-0.078279,0.10056,0.19455,0.094759,-0.010834
0.041047,-0.015412,0.034333,-0.1326,0.010529,0.53635,0.077668,-0.11582
0.0028992,-0.027619,0.02945,-0.044404,-0.065766,0.29221,0.081941,-0.084382
-0.049897,-0.057527,0.020905,-0.095369,-0.045624,0.10513,0.052949,-0.10422
-0.074006,-0.056001,0.0019837,0.099947,-0.072175,0.47807,0.082856,-0.002594
-0.05478,-0.07187,-0.01297,-0.047761,0.017548,0.33524,0.081331,0.11246
-0.077363,0.002594,-0.064851,-0.090486,0.23941,-0.083772,-0.042573,0.027619
-0.069429,0.013581,-0.094148,-0.10269,0.029755,-0.60258,-0.090791,0.014801
-0.12467,0.044099,-0.13138,-0.16281,-0.017548,-0.63493,-0.078279,-0.0068666
-0.084077,0.025177,-0.14511,-0.064546,0.26719,-0.029145,-0.05539,0.033112
-0.065766,0.025483,-0.16648,-0.082856,0.043793,-0.025483,-0.035554,0.065766
-0.097505,0.071565,-0.13779,-0.1619,-0.10971,-0.49241,-0.051423,0.029755
-0.047761,-0.075532,-0.070649,-0.0050355,-0.12161,-0.063325,0.033722,0.074617
-0.041047,-0.067597,-0.12741,-0.14206,-0.14176,0.37705,-0.074617,0.10971
-0.043183,-0.041352,-0.065156,-0.044709,0.028229,0.083467,-0.096895,0.087739
-0.038911,-0.0065614,-0.025483,-0.059052,-0.023651,0.17288,0.087739,0.11551
0.021515,-0.10666,-0.025483,-0.0047303,-0.010224,0.11398,0.053254,0.06363
0.063935,-0.066682,0.012665,-0.068208,-0.018463,-0.070344,-0.023651,0.020905
-0.015412,-0.058442,0.050202,-0.064546,0.056916,0.0206,0.045319,-0.070649
0.044099,-0.16251,0.077668,-0.1738,0.095369,0.14939,0.17655,-0.073091
0.073701,-0.22568,0.019684,-0.026093,0.033722,0.062104,0.15549,-0.036774
0.040436,-0.11643,-0.051728,-0.12467,0.033417,-0.027619,0.019074,-0.15
0.039826,-0.088655,0.00015259,0.12314,0.043183,0.0028992,-0.069429,-0.076143
0.080415,-0.073396,-0.059968,0.04593,0.052338,0.028229,-0.065461,-0.059968
-0.009308,0.043183,-0.13657,-0.23545,0.051118,0.0044251,-0.049592,-0.098421
-0.07187,0.059358,-0.12741,-0.23697,-0.081331,0.031281,0.025788,-0.068208
-0.099031,0.070344,-0.1619,-0.064546,-0.065766,0.074311,0.083467,0.072175
-0.14969,0.068513,-0.15061,-0.0083925,-0.015717,0.070649,0.10391,0.11307
-0.1146,0.065461,-0.13321,-0.10788,-0.026703,-0.0028992,0.085908,0.15915
-0.057832,0.013886,-0.11154,-0.24125,0.09659,-0.03006,-0.014801,0.11154
-0.027314,0.025788,-0.096895,-0.43015,0.098421,0.025177,-0.018769,0.047456
-0.023651,-0.0028992,-0.050813,0.019989,-0.15579,0.14786,0.017243,0.022126
-0.041962,-0.058442,-0.0019837,0.71733,-0.18051,0.14359,-0.16068,-0.0047303
-0.066987,-0.011749,-0.026398,-0.60136,0.12039,0.00076295,-0.08835,-0.028229
-0.038911,-0.016938,0.019684,0.018463,0.083162,0.10117,0.15396,0.13016
0.05539,-0.15976,0.059968,-0.095064,0.048981,0.072786,0.051728,0.087739
0.011139,-0.11185,0.026093,-0.22904,0.041962,-0.17105,-0.12161,-0.11032
-0.02945,-0.07248,0.0062562,-0.079194,0.039521,-0.60227,-0.21653,-0.12161
-0.014496,-0.086519,0.0099184,-0.035248,0.089265,-0.21012,0.05417,-0.076753
0.019379,-0.12253,-0.035859,0.12222,-0.04593,0.20249,0.24826,-0.048371
-0.055085,-0.023346,-0.085298,-0.19089,0.015106,0.10849,0.14633,-0.039521
-0.075837,0.035248,-0.12467,-0.069429,0.0080873,0.15763,0.017243,0.017243
-0.081331,0.026093,-0.12528,-0.033112,-0.08957,0.21622,0.015412,0.068513
-0.077668,0.027619,-0.16922,-0.022736,-0.021515,-0.15,0.047761,0.07126
-0.053864,-0.00045777,-0.16129,-0.073396,0.0053407,-0.068208,-0.00076295,0.07248
-0.069429,0.015717,-0.1326,-0.25376,0.07248,-0.023041,-0.27115,0.027924
-0.075227,0.044709,-0.12131,-0.12039,0.19669,0.020905,-0.14694,0.063935
-0.047761,-0.0080873,-0.063935,-0.098726,0.0056458,0.12528,0.092622,0.06302
0.0096132,-0.091402,-0.0047303,-0.052949,-0.16617,0.084382,0.13382,0.055695
0.041047,-0.036164,-0.014496,-0.005951,-0.062715,0.021515,-0.020294,0.023957
0.026093,-0.07248,0.0022889,-0.056611,0.025177,-0.024872,-0.082246,-0.057832
0.026093,-0.082551,0.034943,-0.1265,0.038911,-0.017548,-0.0083925,-0.051728
0.0032044,-0.08957,0.024567,-0.025177,-0.0056458,0.034638,0.14023,0.0032044
-0.0022889,-0.10666,0.028229,-0.053254,0.017243,0.018769,0.15122,0.017548
0.065766,-0.14542,0.010834,-0.049592,0.029755,0.032502,0.12253,0.03769
0.084688,-0.14633,-0.014801,0.055085,0.009308,0.11887,0.16464,-0.023651
0.0080873,-0.060273,-0.074617,-0.065766,0.047456,0.17624,0.050507,-0.10727
-0.018769,0.025788,-0.075227,-0.1268,0.074006,0.13077,-0.12619,-0.056611
0.011444,0.016327,-0.11032,-0.14145,-0.068513,0.34836,0.17868,0.044099
0.02121,0.0035096,-0.16251,-0.36454,-0.056001,0.30869,-0.0972,-0.0032044
-0.013581,0.055085,-0.16159,-0.060883,0.0056458,-0.39567,-0.57053,-0.032807
-0.082246,-0.0035096,-0.13138,0.56199,0.041962,-0.79637,0.016938,-0.023346
-0.0795,-0.00076295,-0.11276,-0.15061,0.070039,0.1503,0.55406,0.081636
-0.12467,0.019074,-0.13748,-0.20951,-0.012055,0.025483,0.25772,0.088655
-0.070954,-0.024262,-0.098116,-0.13535,-0.20432,-0.41855,0.15335,0.0099184
-0.05478,-0.0065614,-0.01236,-0.56504,-0.10086,0.18753,-0.25345,0.036774
-0.13443,0.030671,0.031586,-0.12741,0.25986,0.05417,-0.51194,0.014801
-0.057832,-0.082856,0.012665,-0.00015259,-0.042878,-0.13169,-0.19425,0.017243
-0.039216,-0.088045,0.027619,0.089265,-0.098421,0.051423,-0.082246,-0.02884
-0.12375,-0.039826,0.013581,-0.0065614,0.29648,-0.63249,-0.20005,-0.12131
-0.11795,-0.11643,0.03006,-0.077058,0.25284,-0.34409,-0.050507,-0.084993
-0.088045,-0.034638,-0.0096132,0.15427,-0.11643,0.34806,0.27115,0.088655
-0.052644,-0.051423,-0.025483,-0.042267,-0.0080873,0.25895,0.11307,0.11643
-0.010529,-0.092317,-0.059968,-0.23575,0.093538,0.24643,-0.083772,0.046845
0.009308,-0.028229,-0.12924,-0.19699,-0.052033,0.48966,0.13504,0.035859
-0.0035096,-0.00076295,-0.1268,-0.087434,-0.12619,0.55955,0.16861,-0.0035096
-0.036469,-0.0028992,-0.12741,-0.059052,-0.019074,-0.2089,0.061799,0.045624
-0.044709,0.028229,-0.1146,-0.042878,0.013886,-0.21256,0.13382,0.14084
-0.032807,0.037079,-0.14115,-0.00076295,0.016632,0.21805,0.14878,0.14786
-0.024262,0.033112,-0.11521,-0.13291,0.09781,-0.17472,0.052033,0.081636
-0.0096132,0.028229,-0.11307,-0.095064,-0.044404,-0.72435,-0.01297,0.044099
0.0065614,-0.021515,-0.052033,-0.09781,-0.13443,-0.28061,0.034028,0.019074
-0.0071717,-0.028534,-0.030671,-0.11948,-0.056611,0.43168,-0.028229,-0.048371
0.027008,-0.10056,0.0083925,-0.020294,-0.10758,0.59251,-0.0083925,-0.018463
0.015106,-0.091402,0.035554,-0.020294,-0.052033,0.1738,0.039826,-0.0035096
0.037385,-0.11002,0.041962,-0.06363,0.1268,-0.11948,-0.032807,-0.033112
0.0795,-0.12833,0.030976,0.043488,0.10361,0.020294,0.0028992,-0.049897
0.08011,-0.086519,-0.016632,-0.11368,0.1149,0.0053407,0.034943,-0.078889
0.057221,-0.061799,-0.0065614,-0.13382,0.16007,-0.018158,-0.025788,-0.10544
0.011444,-0.034333,-0.043793,-0.011139,0.031891,0.051423,-0.018463,-0.067597
-0.020294,-0.0096132,-0.084077,-0.053254,0.039521,0.034943,-0.022126,-0.074617
-0.059052,-0.026093,-0.095064,0.0010681,-0.16678,0.0047303,-0.079194,-0.055695
-0.055085,-0.050813,-0.11521,-0.11887,-0.14786,-0.17777,-0.14542,-0.011444
-0.046845,-0.050507,-0.12985,-0.16983,0.21439,-0.12955,-0.036774,0.013275
-0.16007,0.002594,-0.15061,-0.15091,-0.055695,0.064851,0.10391,-0.00045777
-0.14206,-0.023957,-0.15274,-0.0013733,-0.048676,0.019379,0.067597,0.10208
-0.052949,0.0016785,-0.18662,-0.1088,0.048981,0.048981,0.056306,0.20249
-0.02945,0.074006,-0.11612,-0.24552,-0.0019837,0.14572,0.12222,0.072786
-0.019684,0.013886,0.066987,-0.15976,-0.074922,0.18235,0.17319,0.012665
-0.04654,-0.0206,0.010529,0.15976,-0.084688,0.15976,0.17441,0.054475
-0.0086976,-0.098421,0.032197,0.091096,-0.052949,0.1091,0.099947,0.052033
-0.024872,-0.058442,0.056611,0.08072,0.09659,-0.063325,-0.12314,0.0065614
-0.011444,-0.05478,-0.0074769,-0.12161,0.19699,-0.11948,-0.099641,0.03006
0.039216,-0.12009,-0.01297,-0.25711,0.19974,-0.392,-0.16922,-0.0083925
-0.01297,-0.041962,-0.0099184,-0.37613,0.0086976,-0.40848,-0.16434,-0.10727
-0.0096132,-0.066377,-0.0022889,0.051118,-0.11582,0.14084,0.14023,-0.027619
0.019684,-0.058442,-0.085908,0.08896,-0.012055,0.1622,0.074006,-0.012055
-0.025483,-0.066377,-0.063325,0.0056458,0.030976,0.087129,-0.093843,-0.041657
-0.08072,0.016327,-0.13169,-0.11917,0.093538,0.025177,-0.25376,0.014801
-0.078279,0.051728,-0.1915,-0.168,0.11429,-0.019074,-0.28794,0.043793
-0.062104,-0.014496,-0.13626,-0.077363,-0.074922,0.059052,0.11307,0.017853
-0.094453,0.060273,-0.14633,-0.18997,-0.068818,0.020294,0.28122,0.034028
-0.099947,0.092317,-0.099336,-0.0080873,-0.056916,0.036469,0.22599,0.092012
-0.074922,0.040131,-0.13443,-0.056306,-0.069429,0.05478,0.11063,0.168
-0.010224,-0.072786,-0.030671,-0.015412,0.017243,0.0080873,0.033417,0.12924
0.0056458,-0.022126,-0.043793,-0.22904,-0.081636,0.064851,0.090181,-0.0074769
0.0099184,-0.035554,-0.0035096,-0.085298,-0.11765,0.072175,0.17044,0.0035096
0.044099,-0.11002,0.018769,-0.016327,-0.018158,0.12375,0.2565,-0.015106
0.049592,-0.096895,0.032502,-0.10727,0.053864,0.27085,0.4094,-0.012665
0.059358,-0.13291,0.030976,-0.023041,0.060273,0.26444,0.13291,-0.063935
0.057527,-0.14237,0.009308,-0.028229,0.22568,0.14786,-0.61021,-0.12802
0.040436,-0.12192,0.0016785,-0.074311,0.036164,0.045319,-0.45151,-0.14847
0.0010681,-0.057832,-0.042267,-0.060578,-0.060883,-0.59037,-0.37095,-0.0972
-0.041657,-0.0038148,-0.056001,-0.11948,0.046845,-1.1543,-0.69932,-0.046845
-0.025177,-0.032197,-0.11734,0.12589,0.11398,-0.30747,-0.10636,-0.027314
-0.016938,-0.020294,-0.11978,-0.060883,0.083772,0.16434,0.31083,-0.031281
-0.065156,0.0035096,-0.14878,-0.40177,-0.048676,0.55375,0.32151,-0.010529
-0.061799,-0.00045777,-0.13962,0.28275,-0.12985,0.66087,0.30411,0.036164
-0.11795,0.051423,-0.12619,-0.33585,-0.17166,0.30716,0.0028992,0.043793
-0.13931,0.078279,-0.13077,-0.13474,-0.1445,-0.16587,-0.15763,0.085908
-0.12558,0.048676,-0.085298,0.10147,-0.015412,-0.23453,0.10208,0.14176
-0.087129,0.00045777,-0.046235,-0.034333,0.36637,-0.34318,0.17716,0.14176
-0.091096,0.00045777,-0.040131,-0.18784,0.33188,-0.25162,0.12711,0.084688
-0.031891,-0.08072,0.012055,-0.017243,-0.103,0.019989,0.059663,0.10666
-0.0013733,-0.099947,0.010529,-0.1268,-0.1973,0.14878,0.07248,0.082551
0.012055,-0.11978,0.022126,-0.068513,-0.029145,0.22171,0.099947,-0.0013733
0.016022,-0.099641,0.031586,-0.0041199,0.11154,0.26291,0.11643,-0.0074769
0.041352,-0.097505,0.0062562,-0.12314,0.026703,0.17288,0.03769,-0.0090028
0.06302,-0.16342,0.015412,-0.092927,-0.043183,0.062409,-0.052644,-0.031586
0.0795,-0.11673,-0.032502,-0.18906,0.009308,0.044099,-0.044709,-0.049897
0.061799,-0.036469,-0.070954,-0.0795,0.055695,-0.067292,-0.081941,-0.10422
0.0383,0.00015259,-0.11368,0.059358,0.068208,-0.48356,-0.15183,-0.097505
-0.014191,0.0083925,-0.11887,0.20768,0.029755,-0.21195,0.0053407,-0.037079
0.026093,-0.021515,-0.16922,0.12711,-0.042878,0.17014,0.10819,0.0077821
-0.073396,0.058747,-0.14969,-0.22507,-0.0096132,0.054475,-0.0053407,-0.058747
-0.18692,0.12222,-0.12436,-0.70848,-0.039826,0.052338,0.02121,-0.065766
-0.23423,0.10636,-0.1033,-0.26719,-0.079805,0.20615,0.16709,0.13016
-0.11032,-0.030671,-0.088045,-0.027008,0.060578,0.19394,0.13535,0.20554
-0.030671,-0.051423,-0.030976,0.052949,-0.048676,0.15274,0.11704,0.10025
0.0056458,-0.059968,-0.022431,0.018769,-0.019074,0.23789,0.051423,0.015717
-0.025177,-0.056001,0.0083925,-0.028534,0.11551,0.24735,-0.032807,0.017243
-0.047456,-0.024872,0.0038148,0.015106,0.027008,0.29038,-0.13169,0.025177
-0.019684,-0.064546,0.015717,-0.01236,-0.22324,0.29374,-0.26566,0.039216
-0.014496,-0.097505,0.016632,-0.080415,-0.14878,-0.55253,-0.13382,-0.002594
0.023957,-0.12619,0.016327,-0.010224,0.036164,-1.6307,0.24369,-0.013581
0.029755,-0.14084,0.0065614,-0.031281,0.1088,0.037385,0.37522,-0.048981
-0.057221,-0.016022,-0.042573,-0.14511,0.059358,0.7808,0.31968,-0.06302
-0.04593,-0.0047303,-0.087129,-0.0041199,0.036774,0.11185,-0.34012,-0.018463
0.05539,-0.12894,-0.098116,-0.15366,0.063325,-0.10269,-0.47654,0.018158
0.013581,0.017243,-0.18296,-0.47288,0.07187,-0.099947,-0.14481,-0.036774
-0.058747,0.095369,-0.16373,0.50736,0.029145,-0.12741,-0.1387,-0.028534
-0.065156,0.074311,-0.1326,0.16312,0.0065614,0.016022,-0.12161,0.022736
-0.062715,0.012055,-0.13046,-0.22232,0.083162,-0.16403,-0.12772,0.060273
-0.085298,0.058747,-0.1146,-0.29587,0.1503,-0.18723,-0.091707,0.020905
-0.11124,0.0383,-0.051118,-0.18509,-0.0050355,0.11521,0.046235,0.083467
-0.048371,-0.068513,0.025788,-0.20706,-0.017243,0.17136,0.21408,0.13321
0.026093,-0.20035,0.036469,0.30411,-0.11521,0.1207,0.1854,0.046845
0.035554,-0.16648,-0.040436,-0.36973,-0.0383,0.035554,0.11704,-0.022736
0.04715,-0.12741,0.015717,0.052033,-0.031586,0.21378,0.098116,-0.017243
0.027924,-0.052033,0.0206,-0.024567,0.040131,0.44572,0.037995,-0.082246
-0.0056458,-0.010224,-0.0019837,-0.24704,0.029755,0.13657,0.11368,0.027008
-0.01297,-0.030671,0.017243,0.072786,-0.070954,0.082856,0.1384,0.048066
0.027619,-0.12039,-0.046235,0.013581,-0.041047,0.082246,0.12192,0.0074769
-0.019684,-0.041657,-0.060273,-0.37766,0.14328,0.0068666,0.079194,-0.031891
-0.0086976,-0.034028,-0.094148,0.12558,0.1854,-0.009308,-0.0022889,-0.063935
-0.022126,0.016632,-0.12863,-0.021515,-0.11551,0.094759,-0.045624,-0.074617
-0.081025,-0.009308,-0.14298,-0.048676,-0.10025,-0.35325,-0.15702,-0.11582
-0.030976,-0.074922,-0.12284,-0.11917,0.18235,-0.84581,-0.19028,-0.021515
-0.085603,0.053254,-0.14145,-0.262,0.22599,-0.17502,-0.095674,-0.00045777
-0.091707,0.068513,-0.13748,-0.026093,0.0206,0.11307,0.13687,0.076448
-0.082246,0.065766,-0.1149,-0.057527,-0.10147,0.2153,0.16464,0.15488
-0.096284,0.049287,-0.059052,-0.081331,-0.31785,0.18204,0.033417,0.14694
-0.057221,-0.060578,-0.016022,-0.10117,-0.093843,0.068208,-0.16922,0.11978
-0.029755,-0.059968,0.032197,-0.023041,0.13107,0.010529,-0.13321,0.059663
0.0068666,-0.072175,0.038911,-0.15793,-0.058442,0.033417,0.05539,-0.00076295
0.045014,-0.103,0.030671,-0.10727,-0.018158,0.035554,0.029145,-0.055085
0.048066,-0.066377,0.026703,-0.023041,-0.08896,0.095064,0.043793,-0.06363
0.072175,-0.121,-0.052033,-0.02945,0.0016785,0.060273,0.093538,-0.089265
0.047761,-0.077668,0.011444,-0.14908,0.0383,0.13596,0.16861,-0.079194
0.005951,-0.085603,-0.024262,-0.022126,0.0099184,0.22416,0.20981,-0.060578
-0.011444,-0.059663,-0.065766,-0.02121,0.17807,0.13962,0.10147,-0.044709
-0.018463,-0.036469,-0.11368,-0.08896,0.15793,0.15976,-0.14664,-0.019074
-0.1387,0.081331,-0.13748,0.051118,-0.072786,0.034943,-0.37613,0.041962
-0.12924,0.050507,-0.15763,0.08011,0.0071717,-0.69535,-0.060578,0.11093
-0.056001,-0.046845,-0.12375,-0.18326,0.12711,-0.82414,0.16007,0.095369
-0.05478,-0.011749,-0.13443,-0.20279,0.1146,0.29038,0.090181,-0.014191
-0.055085,0.028534,-0.12955,-0.25498,0.017243,0.36301,-0.14969,0.066072
-0.051728,-0.0083925,-0.073396,-0.15671,-0.16098,0.21103,-0.12558,0.07126
-0.0080873,-0.064851,-0.036774,-0.085298,-0.14054,0.069734,0.11643,0.076448
-0.013581,-0.066682,-0.0056458,-0.16007,-0.027314,-0.33494,-0.010529,0.0206
0.069429,-0.095674,0.024262,0.1976,-0.061799,-0.06302,0.037385,0.023957
0.023957,-0.017853,0.013275,0.033417,-0.079805,0.20981,0.067903,-0.059052
0.020905,-0.050813,0.023346,-0.11246,0.1149,0.04654,0.019684,-0.093538
0.031586,-0.099641,0.023957,-0.037079,0.12558,0.073701,0.077974,-0.025788
0.017243,-0.059663,-0.0086976,-0.077363,0.061494,0.066377,0.02182,-0.041962
-0.009308,-0.052949,-0.005951,-0.024567,0.06424,0.045319,-0.010834,-0.018769
-0.043793,-0.023651,-0.062104,-0.092927,0.043488,0.025483,0.0065614,-0.0019837
-0.032807,-0.056611,-0.067903,-0.083467,0.0056458,0.017853,0.0071717,-0.052033
-0.060883,-0.062104,-0.11032,-0.1735,-0.0062562,0.017243,0.013886,-0.043793
-0.06302,-0.038605,-0.15763,-0.27024,-0.0035096,0.018769,0.028229,0.036164
-0.095674,0.029755,-0.13321,0.42405,-0.073396,0.05539,0.053559,0.055085
-0.10361,0.0080873,-0.15152,-0.36027,-0.013275,0.022126,0.03769,0.033722
-0.048981,-0.029755,-0.099031,-0.13718,0.046845,-0.0074769,0.08957,0.10391
-0.10849,0.10056,-0.12711,-0.047761,0.010834,0.058442,-0.018158,0.1146
-0.097505,0.068208,-0.098421,-0.09659,0.0065614,0.0053407,-0.10147,0.091707
-0.029755,-0.030365,-0.0090028,0.070954,-0.059663,0.050507,0.039216,0.14878
-0.010834,-0.023957,-0.013886,-0.11307,0.0065614,0.28977,0.059663,0.082856
-0.015717,-0.076448,0.019989,-0.18296,0.036164,0.48631,-0.0019837,-0.0019837
0.034028,-0.07187,0.058747,0.083772,-0.10605,-0.19516,-0.17166,-0.013581
0.056611,-0.16739,0.041657,0.090181,0.098421,-1.0158,-0.070039,-0.10544
0.03769,-0.057527,-0.033722,-0.30747,0.065766,-0.67887,0.070344,-0.11612
-0.018463,-0.088045,0.01236,-0.23789,-0.051423,0.3801,0.076448,-0.052033
-0.043183,-0.084688,-0.0077821,0.0028992,-0.090791,0.63767,0.11063,0.0080873
-0.045319,-0.043488,-0.074311,-0.02121,-0.081636,0.47776,0.14298,0.013886
-0.028534,-0.038911,-0.10056,-0.026398,0.045014,-0.063325,0.1442,-0.029755
-0.059968,-0.005951,-0.13626,-0.068208,0.10697,-0.65202,0.12619,-0.054475
0.013275,-0.084688,-0.13748,-0.091707,0.092317,-0.45365,-0.15976,-0.028229
0.0086976,-0.043488,-0.13748,-0.14145,0.11063,-0.11551,-0.37278,-0.024262
-0.012055,0.036469,-0.14725,-0.11124,0.077974,0.26047,-0.53819,0.033417
-0.031586,0.08835,-0.11734,-0.1619,0.018158,0.15427,-0.11154,0.079805
-0.048676,0.12436,-0.1091,-0.078584,-0.1033,0.10849,0.21103,0.021515
-0.10391,0.085603,-0.06302,-0.0047303,-0.11215,0.11002,0.1854,0.0086976
-0.12467,0.04654,-0.016632,0.048676,-0.026703,0.084688,0.13687,0.043793
-0.047761,0.0032044,-0.00015259,0.018463,0.059663,0.055695,0.11154,0.1091
-0.044404,-0.074922,0.034943,-0.2269,0.012055,0.054475,0.066377,0.0016785
0.036774,-0.19669,0.052338,-0.073091,0.018769,0.050202,0.07248,-0.0028992
0.050202,-0.19608,0.047456,0.060273,0.12039,0.048066,0.070649,0.049897
0.049897,-0.19425,0.023346,-0.085298,0.17136,-0.0099184,0.0038148,-0.038605
0.023041,-0.16861,-0.0090028,-0.215,0.10056,-0.023346,0.0065614,-0.081331
-0.0019837,-0.098726,-0.046235,-0.14084,0.027924,0.022431,-0.00015259,-0.069429
0.033112,-0.071565,-0.095369,-0.0090028,-0.14267,0.10056,0.016632,0.0065614
-0.030365,0.0022889,-0.11154,0.058137,-0.40055,0.079194,0.041047,-0.024872
-0.12314,0.10666,-0.15366,-0.29862,-0.17594,-0.054475,-0.0035096,-0.057832
-0.12436,0.096284,-0.15915,-0.083772,0.15,-0.026093,0.096895,0.103
-0.076143,0.0077821,-0.14359,0.01297,0.14389,0.039216,0.10178,0.075532
-0.077974,0.019379,-0.10422,-0.024872,0.044099,0.21744,0.027008,0.055695
-0.081025,0.069123,-0.1445,-0.099031,-0.00045777,0.11978,-0.18509,0.11826
0.016632,0.030671,-0.066682,-0.1384,-0.0044251,-0.11429,-0.11978,0.13657
0.050202,-0.041352,-0.027008,-0.058442,-0.050813,-0.10239,-0.012665,0.0041199
0.0028992,-0.0099184,-0.027924,-0.0383,-0.05539,-0.20066,-0.025177,-0.071565
-0.0096132,-0.060578,0.0056458,-0.40085,0.19303,-0.30777,0.052338,-0.0086976
0.035859,-0.13382,0.044404,0.17594,0.25467,0.14817,0.12589,0.047761
-0.028229,-0.064546,0.012665,0.22629,-0.028229,0.25589,0.16556,-0.00045777
-0.017243,-0.058747,0.0206,-0.032502,-0.099031,0.16983,0.33371,-0.013581
0.00045777,-0.10544,0.017548,-0.11368,0.034028,0.24125,0.30045,-0.030671
0.026093,-0.1564,0.011749,-0.055695,0.026703,0.063325,-0.22446,-0.090791
-0.022431,-0.046845,-0.06424,-0.18601,-0.035248,0.028534,-0.3563,-0.077668
-0.097505,0.0099184,-0.0972,-0.18906,0.019989,0.036164,-0.12772,-0.064546
-0.072175,-0.048371,-0.11337,-0.03769,-0.02884,-0.16526,-0.29679,0.010834
-0.079805,0.015717,-0.168,-0.082246,-0.088045,-0.19577,-0.3444,0.036774
-0.049592,-0.034028,-0.12985,-0.061494,0.025788,-0.64958,0.14267,0.088045
-0.051728,0.025788,-0.12467,-0.11856,0.13107,-0.59617,0.26932,0.092622
-0.053254,-0.014801,-0.039826,0.08896,-0.12222,0.24063,0.10056,0.061494
-0.084077,0.043793,-0.18296,-0.31968,0.31357,-0.083772,-0.19303,0.07187
-0.01297,-0.094453,-0.059968,-0.12528,0.39628,0.11795,0.03769,0.103
0.07126,-0.092317,-0.030365,0.092012,-0.6099,0.47532,0.13657,0.047456
0.057527,-0.068513,-0.0062562,-0.17899,-0.08011,0.037079,-0.11398,-0.048371
-0.01297,0.022736,0.0077821,-0.22599,0.17502,-0.030365,-0.081941,-0.13046
-0.0010681,-0.059968,0.040742,0.056916,-0.21073,0.16831,-0.0010681,-0.11917
0.06424,-0.11734,0.019379,0.0047303,-0.048981,0.21256,0.015412,-0.02121
0.03769,-0.072786,-0.0013733,-0.2211,0.058442,0.098421,-0.00045777,-0.083467
0.013275,-0.070649,0.005951,-0.063325,-0.014191,0.06363,0.04593,-0.13016
-0.0096132,-0.056001,-0.030365,0.047761,-0.042878,0.091096,0.15305,-0.0080873
-0.027619,-0.038911,-0.07187,0.099336,-0.011139,0.061189,0.13809,0.034943
-0.040436,-0.040436,-0.098116,-0.13993,0.035859,-0.24094,0.009308,0.013275
-0.070039,0.0071717,-0.14054,-0.2153,0.17533,-0.40116,-0.073396,-0.0065614
-0.051118,0.019989,-0.14633,-0.085298,0.081331,0.13809,0.065156,0.058137
-0.10727,0.049592,-0.1384,-0.01236,-0.058747,0.17533,0.056611,0.051118
-0.1268,0.022431,-0.11765,-0.042573,-0.019074,0.12894,-0.002594,0.062104
-0.11856,0.037995,-0.12161,-0.051423,0.0056458,0.16892,0.02182,0.079194
-0.076753,0.044099,-0.092927,-0.02121,0.009308,0.12772,0.010529,0.051118
-0.059358,0.022431,-0.044709,-0.17014,-0.054475,0.10361,0.061799,0.092012
-0.041657,-0.018769,-0.016022,-0.076448,-0.067903,-0.099947,0.094453,0.12253
-0.025788,-0.041962,0.02182,-0.066682,0.10819,-0.26078,0.11765,0.095369
0.017853,-0.084993,-0.04654,-0.11704,0.21042,-0.2031,0.34226,0.078584
0.040131,-0.11612,0.016632,-0.11368,-0.024262,0.15793,0.19486,-0.040436
0.034028,-0.14572,0.039521,-0.071565,-0.030976,0.2565,-0.044709,-0.11307
0.041352,-0.11551,0.018463,-0.1268,0.00045777,0.23239,-0.035554,-0.010224
0.041352,-0.1323,0.028229,0.01297,-0.062715,0.19242,-0.53513,-0.01236
-0.048676,-0.036469,-0.051728,0.039826,0.037385,-0.2678,-0.49821,-0.079194
-0.048981,-0.017548,-0.094148,-0.103,0.16617,-0.81865,-0.10819,-0.050507
-0.00015259,-0.03006,-0.10727,-0.065461,0.033417,-0.31266,0.059968,0.00045777
-0.010224,0.010529,-0.14115,0.068208,-0.10025,0.45396,0.10697,-0.02884
-0.056611,0.026093,-0.11734,-0.20188,0.051118,0.20859,0.13596,-0.018158
-0.08896,0.069429,-0.14847,-0.17502,-0.05478,0.0041199,0.056611,0.016938
-0.11734,0.084382,-0.15702,-0.30106,0.0080873,-0.42985,0.052033,0.060578
-0.076143,0.0071717,-0.10452,0.29191,0.013581,0.055695,0.1854,0.082856
-0.060883,-0.002594,-0.075227,-0.23331,-0.043183,0.4387,0.23758,0.096284
-0.063325,-0.015717,-0.0206,-0.14969,-0.096895,0.53117,0.20371,0.041352
-0.093843,-0.016632,-0.029145,-0.24582,-0.038911,-0.023957,0.051118,0.057832
-0.056611,-0.064851,0.02945,0.47623,0.065766,-0.43351,-0.33433,0.076143
0.026703,-0.12039,0.046235,-0.47044,0.070344,0.21134,-0.40543,0.059968
0.092927,-0.15671,0.010224,-0.12589,0.032197,0.20401,-0.0206,-0.0044251
0.085298,-0.091707,-0.0053407,-0.0090028,-0.083162,0.077363,0.17929,-0.074006
0.0050355,-0.093843,0.017853,-0.14725,0.0050355,-0.45426,0.094148,-0.15091
-0.028534,-0.12772,0.00076295,0.15244,-0.002594,-0.59983,0.0028992,-0.031586
-0.011139,-0.092317,-0.063935,-0.027314,0.075532,0.15305,-0.098421,-0.031281
-0.0056458,-0.0096132,-0.12375,-0.13779,0.13718,0.10056,-0.059358,-0.081331
-0.002594,0.0044251,-0.1323,-0.07126,-0.011444,0.060578,0.098421,-0.057832
-0.064851,0.05539,-0.14572,-0.15549,-0.065766,0.066987,0.065156,-0.01297
-0.088045,0.084382,-0.15122,-0.13565,0.002594,0.042573,0.069734,0.10788
-0.06363,0.028229,-0.13138,-0.015106,-0.0010681,0.14664,0.18051,0.11978
-0.041657,-0.027924,-0.10269,-0.075532,0.0096132,0.17685,0.075837,0.065766
-0.071565,-0.034943,-0.08072,-0.085603,0.049592,-0.10361,-0.12955,0.027314
-0.0795,-0.0206,-0.063935,-0.12467,0.040436,-0.11093,-0.017548,-0.015106
-0.010224,-0.12802,-0.036469,-0.0047303,-0.070954,0.14664,-0.034333,-0.035554
-0.009308,-0.065461,-0.026703,-0.042573,-0.16831,0.103,-0.054475,0.022736
-0.03769,0.023651,0.014496,-0.086824,0.013275,0.039216,0.1088,-0.010529
-0.034638,-0.023346,0.016327,-0.24765,0.066072,0.16953,-0.0065614,0.00045777
0.0053407,-0.082246,0.044099,0.103,-0.064546,0.13962,0.019379,0.022126
0.0032044,-0.13809,0.018463,-0.095369,0.091707,0.070344,0.15244,0.011444
0.067292,-0.19425,0.0099184,-0.04715,0.21836,-0.080415,0.016938,0.009308
0.16709,-0.12894,-0.060273,0.027619,0.11948,-0.29252,-0.15763,0.023346
0.15244,-0.059968,-0.094453,-0.13718,0.13291,-0.43168,-0.25895,-0.14664
0.027008,0.035554,-0.094148,-0.23148,0.074311,0.20401,0.077974,-0.19608
-0.078889,0.062409,-0.11337,-0.079194,-0.18692,0.56962,0.36637,-0.047456
-0.10758,0.038605,-0.1323,-0.028229,-0.28672,0.58,0.24582,0.076448
-0.10575,0.05539,-0.14908,-0.045319,-0.22751,0.28702,-0.20279,0.079805
-0.10758,0.0047303,-0.14328,-0.11643,-0.081331,-0.42618,-0.44907,-0.0044251
-0.13077,-0.0062562,-0.12467,0.0013733,-0.024872,-1.147,-0.08835,0.033112
-0.12955,0.0047303,-0.13535,-0.18753,0.057832,-0.18631,0.061189,0.10056
-0.15793,0.009308,-0.052644,-0.26963,0.36881,-0.073091,0.0074769,0.11154
-0.19821,0.064546,-0.031586,0.045624,-0.009308,-0.12039,0.10239,0.12772
-0.075227,-0.053864,0.023957,0.25742,0.0065614,0.14389,0.32059,0.12284
-0.028229,-0.033722,0.049592,-0.31174,0.28214,0.17014,0.084382,0.074006
0.035859,-0.059663,0.036469,-0.22507,0.041962,-0.092622,-0.33219,0.046845
0.051728,-0.090486,0.022736,-0.040436,-0.02121,-0.042267,-0.10452,-0.0032044
0.07187,-0.13138,-0.00015259,0.083467,-0.089265,0.3151,0.15244,-0.034333
0.10239,-0.15671,0.017243,-0.10636,-0.084077,0.18723,0.11032,-0.022736
0.049897,-0.083467,-0.060578,-0.2443,-0.02121,0.077058,0.079805,-0.015106
-0.048981,0.04593,-0.07248,0.34379,0.10452,0.0090028,0.034943,-0.010224
0.065156,-0.13901,-0.103,0.087129,0.081331,0.070344,0.056306,0.013886
-0.015412,-0.018463,-0.14633,-0.3743,0.063325,0.046235,0.0038148,-0.08072
-0.1091,0.058442,-0.13687,-0.20188,0.034333,-0.026398,-0.022736,-0.10178
-0.11154,0.070649,-0.13993,0.048981,-0.20829,0.099336,0.079194,0.046235
-0.061799,-0.02182,-0.12345,-0.22141,-0.14572,0.059358,0.044404,0.0065614
-0.066987,-0.07248,-0.1091,-0.15366,-0.08011,0.013275,0.013886,-0.024262
-0.059968,-0.027314,-0.081331,-0.16312,-0.019684,0.031586,0.023346,0.029755
-0.041047,-0.045624,-0.024567,-0.033722,0.0019837,0.031281,0.022126,0.023346
-0.012055,0.019379,-0.075837,-0.0065614,0.011139,-0.024262,-0.018769,0.033722
0.009308,-0.026398,0.026093,0.069429,0.033417,0.0086976,0.0071717,0.065461
-0.065461,-0.028534,0.022736,-0.13565,0.094148,0.043488,0.022736,0.030365
-0.0083925,-0.10239,0.037385,-0.1387,0.042878,0.018158,0.017853,0.068513
0.075532,-0.1735,0.060883,0.005951,-0.00015259,-0.016938,-0.01236,0.078584
0.073701,-0.13779,-0.0028992,-0.050202,0.14786,-0.079805,-0.058747,-0.10025
-0.00045777,-0.032197,-0.011444,-0.10575,0.16526,-0.038911,-0.025177,-0.14084
0.039521,-0.048371,-0.062104,-0.096284,0.042267,0.081331,0.023041,-0.051118
0.028229,-0.026398,-0.10117,-0.04715,-0.028229,0.18143,0.063325,-0.063935
-0.018158,-0.0047303,-0.12955,-0.024872,-0.19059,0.10941,0.05539,-0.078279
-0.055695,0.015717,-0.13382,0.14603,-0.39384,0.035554,0.03006,-0.00015259
-0.103,0.019379,-0.13107,-0.2681,0.10849,-0.1973,0.012665,0.028229
-0.1323,0.051423,-0.13382,-0.30228,0.28122,-0.34684,-0.091096,0.046845
-0.13016,0.030365,-0.103,-0.090486,0.27298,-0.18784,0.052033,0.10422
-0.099641,0.04715,-0.15061,-0.0206,-0.087129,0.069734,0.12711,0.11246
-0.06302,0.0013733,-0.069429,-0.11917,-0.13596,0.33921,0.13199,0.03769
0.063935,-0.092317,-0.0019837,-0.12955,-0.15396,0.37888,0.11704,0.034333
-0.023346,-0.036164,-0.012665,0.092317,-0.13443,0.17594,-0.36179,0.033417
-0.10422,-0.013581,0.032197,-0.047456,0.10269,-0.16464,-0.39658,0.0010681
-0.029145,-0.072786,0.030976,-0.14145,0.17258,-0.16922,-0.071565,0.073396
0.04715,-0.085603,0.015717,-0.12955,0.15305,-0.38132,0.075227,0.023346
0.0383,-0.11246,0.013581,-0.042267,-0.070039,-0.53422,0.14206,-0.073396
0.03769,-0.086824,0.034943,-0.0028992,-0.035248,0.24277,0.11246,-0.10513
0.076143,-0.15702,-0.023651,-0.039521,0.081636,0.17685,0.053254,-0.077363
0.058442,-0.13443,-0.084077,-0.08835,0.02884,0.12375,0.044404,-0.075532
-0.040436,0.0096132,-0.10483,0.059968,-0.038605,0.13199,0.061189,-0.0062562
-0.10391,0.051728,-0.16159,0.12558,-0.024872,0.074922,-0.0053407,0.063935
-0.15488,0.079194,-0.19211,-0.3917,0.11215,0.015412,-0.11429,0.10666
-0.098116,0.016632,-0.12833,-0.33249,0.10483,-0.0074769,-0.095064,0.12436
-0.10117,0.030365,-0.13382,0.21775,-0.016938,-0.33829,0.0035096,0.14115
-0.12528,0.062715,-0.16648,-0.26993,0.053864,-0.25315,0.046235,0.047456
-0.12924,0.058137,-0.096895,-0.093843,-0.18509,0.2562,0.13504,0.072786
-0.053559,-0.058137,0.015412,0.0077821,-0.094759,0.10178,0.13413,0.1149
0.023041,-0.040742,-0.0383,0.103,0.031891,0.0010681,0.076753,0.070649
0.047456,-0.081941,-0.0016785,-0.18357,0.094453,0.13107,0.13657,-0.018158
0.079194,-0.14054,0.056306,-0.16526,-0.0071717,0.51225,0.21714,-0.071565
0.025177,-0.077974,0.0065614,-0.010224,-0.13809,0.46952,-0.017243,-0.12955
0.070649,-0.12345,0.011444,-0.16495,0.056916,-0.37369,-0.19211,-0.032807
0.11826,-0.16434,0.015412,-0.078279,0.092012,-0.5452,-0.063325,-0.051118
0.066072,-0.087434,0.0019837,-0.065156,-0.022431,0.1796,0.039521,-0.1503
0.027924,-0.063325,-0.042267,-0.0206,-0.0096132,0.19242,-0.0083925,-0.13779
-0.081331,0.021515,-0.085908,-0.14389,-0.0071717,0.1619,-0.064851,-0.10239
-0.095064,0.023651,-0.090791,0.41306,0.054475,-0.15274,-0.16861,-0.031586
-0.10758,0.035248,-0.12833,-0.21225,0.14267,-0.26139,-0.22873,0.037385
-0.059358,-0.021515,-0.14389,-0.35874,-0.071565,0.098421,0.072786,0.005951
-0.11521,0.090486,-0.16159,-0.24155,-0.11521,0.37613,0.20951,0.0077821
-0.10452,0.017243,-0.12436,-0.018769,-0.095979,0.41947,0.14786,0.096284
-0.066987,0.0096132,-0.15091,0.027619,-0.08835,0.28183,0.13016,0.16342
-0.12009,0.07126,-0.10605,-0.02884,0.062409,-0.18875,-0.1442,0.10758
-0.095979,0.032197,-0.027924,-0.13382,0.16678,-1.1659,-0.040436,0.10758
-0.0050355,-0.13443,0.035554,-0.086519,0.09659,-0.7396,0.18173,0.1564
0.031891,-0.14572,0.026703,-0.066682,0.20676,0.071565,0.17014,0.11917
0.040131,-0.17838,0.066987,-0.071565,0.034028,0.13962,-0.12619,0.0041199
-0.02121,-0.14664,0.031891,0.22263,-0.026398,0.2623,-0.069123,-0.056001
-0.030365,-0.076448,-0.010834,-0.093538,0.096284,0.16007,0.087739,-0.081331
-0.0065614,-0.055695,0.0041199,-0.20005,0.089265,0.14145,-0.085603,-0.010224
0.022126,-0.023346,-0.016632,-0.10636,0.0028992,0.11978,-0.26596,-0.012665
-0.0022889,-0.011749,-0.061189,0.10636,-0.024872,0.027008,-0.057832,-0.040436
0.0065614,-0.042573,-0.092317,0.061494,-0.034943,0.053559,0.13169,0.00045777
-0.011139,-0.012665,-0.1384,-0.40787,-0.2089,0.13077,0.054475,0.0077821
-0.043793,0.0383,-0.14054,-0.26535,-0.32914,-0.0047303,0.002594,-0.025177
-0.00045777,-0.0028992,-0.12222,0.103,-0.077058,0.10788,0.02121,-0.009308
-0.066072,0.040131,-0.14237,-0.12589,0.10422,0.31907,0.11704,-0.07187
-0.030976,0.036164,-0.10971,-0.22202,0.16342,0.0065614,0.23697,-0.01236
0.009308,0.010529,-0.12894,-0.10056,0.039521,0.11185,0.20951,0.01297
0.0053407,-0.0028992,-0.070649,-0.022431,-0.10391,0.12314,-0.087434,-0.034943
-0.03769,-0.005951,-0.034333,0.037995,-0.103,0.072175,-0.33402,0.0383
-0.097505,0.011444,0.0047303,0.07126,-0.014191,0.069429,-0.083772,0.051728
0.020905,-0.11826,0.034028,-0.20096,0.17075,-0.10727,-0.0090028,0.062104
-0.012055,-0.11185,0.023957,-0.30014,0.21378,-0.75059,-0.14267,-0.063935
-0.024567,-0.11978,0.013581,-0.036164,-0.041962,-0.18692,0.053864,-0.086824
-0.1091,-0.031891,0.0013733,0.065156,-0.15457,0.53788,0.22599,0.048981
-0.077668,-0.06363,-0.00015259,0.23575,0.030365,0.11368,0.099031,0.11826
0.005951,-0.10575,0.016632,-0.18997,0.32151,-0.25864,0.11429,0.12619
0.00076295,-0.081941,-0.074311,-0.39292,0.28397,-0.22843,0.1146,-0.039826
-0.019379,-0.11398,-0.095979,0.017243,-0.13046,0.063325,0.22904,-0.060578
-0.041962,0.023651,-0.1384,-0.027619,-0.076143,-0.25162,0.24369,-0.012665
-0.043488,0.066377,-0.14267,-0.10727,0.027008,-0.22934,-0.11765,0.0038148
-0.066682,0.012055,-0.12741,-0.046845,-0.042878,0.24765,-0.1561,-0.014191
-0.070039,-0.050202,-0.1323,-0.064546,-0.044404,0.12528,-0.27543,0.0206
-0.058137,0.0041199,-0.14115,-0.14511,-0.028534,0.077668,-0.58396,0.033112
-0.063325,0.058137,-0.11765,-0.14603,-0.065156,0.12528,-0.15824,0.011139
-0.059052,0.070649,-0.056611,0.045014,-0.10727,0.10117,0.17624,0.052033
-0.044709,0.013581,-0.048371,-0.038911,-0.099336,0.1619,0.24765,0.11032
0.070649,-0.14603,0.028229,-0.09659,0.010834,0.1857,0.20554,0.09781
0.013886,-0.072175,0.0206,-0.10788,0.052338,0.19028,0.18662,0.055695
-0.026703,-0.098116,0.038605,-0.13535,0.066377,0.28458,0.14786,0.023957
0.077668,-0.17502,0.041962,0.35111,0.12253,0.3032,0.1384,0.103
0.059052,-0.075837,-0.018463,-0.48966,0.33188,-0.043793,0.12589,0.010529
0.098421,-0.14786,-0.012665,-0.067597,-0.014191,-0.5388,0.11246,-0.12619
0.025177,-0.074311,-0.030365,0.061799,-0.28397,-0.29801,0.092622,-0.12131
-0.039826,-0.026703,-0.0795,-0.061799,-0.17594,0.041352,-0.00015259,-0.12345
-0.036774,0.012665,-0.121,-0.37522,0.061799,-0.014801,0.10422,-0.077363
-0.021515,-0.010834,-0.13443,0.033722,0.11398,-0.48753,-0.11612,-0.030976
-0.057832,0.04715,-0.15335,0.30564,0.17227,-0.59922,-0.79118,-0.08835
-0.14664,0.16373,-0.1677,-0.34226,0.069123,0.30808,-0.82536,-0.13321
-0.04715,0.015106,-0.12039,-0.071565,-0.22599,0.57145,-0.010834,0.088655
-0.0065614,-0.05417,-0.088655,-0.15549,-0.077974,0.42496,0.23697,0.11826
-0.12863,0.060273,-0.07126,-0.052338,0.042267,-0.41917,0.12314,0.027314
-0.12009,0.021515,-0.013581,-0.031281,0.089265,-0.42069,0.15488,0.13931
-0.052949,-0.046845,-0.027619,-0.053559,0.15213,0.10452,0.17899,0.16342
-0.019684,-0.065766,0.0022889,-0.10452,0.013275,0.17563,0.1915,0.034943
-0.030365,-0.092927,0.018463,-0.056306,-0.10391,0.25986,0.1976,-0.0041199
-0.0028992,-0.12009,0.02945,-0.040436,-0.063935,0.20371,0.20737,0.057221
0.0032044,-0.098726,0.034638,-0.0383,0.034333,0.10239,0.15793,0.057221
-0.0080873,-0.088655,0.0053407,-0.028229,0.084382,0.026398,0.040436,-0.0065614
0.016632,-0.11215,0.0022889,-0.036774,0.060578,-0.033722,-0.1268,0.01297
0.017853,-0.10025,-0.032197,-0.15335,0.073091,-0.41825,-0.18235,-0.036469
-0.028229,-0.016022,-0.083162,-0.093233,0.057527,-0.27939,-0.032502,-0.082246
-0.010834,-0.018769,-0.1265,-0.02884,-0.023651,0.16098,0.075532,-0.012665
-0.051728,-0.012055,-0.14542,-0.036774,-0.0096132,0.077363,0.011139,-0.0068666
-0.082246,-0.0028992,-0.15091,-0.10452,-0.032197,0.067597,0.0077821,0.0206
-0.064546,0.033417,-0.17472,-0.15305,-0.038605,0.065766,0.062409,0.11002
-0.025483,0.0206,-0.1445,-0.2034,-0.077668,0.095979,0.071565,0.11887
-0.019074,0.040742,-0.1384,-0.21225,-0.02121,0.059358,0.010834,0.059052
0.025788,-0.030976,-0.031891,0.095979,-0.053864,0.09659,0.089876,-0.0013733
-0.0019837,0.012055,-0.03006,-0.055695,-0.015106,0.06424,0.12314,-0.047761
-0.019074,-0.0077821,-0.0053407,-0.083162,0.0056458,0.026703,0.11429,-0.015106
-0.002594,-0.052033,0.019684,0.037385,-0.1033,0.2565,0.33219,0.047456
0.0065614,-0.11398,0.044099,-0.22629,-0.0019837,0.28092,0.2443,-0.0090028
-0.019684,-0.12345,0.022736,0.11368,0.0383,0.13718,0.059052,-0.056916
-0.015106,-0.064546,-0.010834,-0.27939,0.16587,0.25284,0.17777,0.012665
-0.049592,-0.035554,0.016022,-0.10147,0.31052,0.069429,-0.59525,-0.014496
-0.043183,-0.064546,-0.023651,0.037079,0.0096132,-1.0546,-1.1574,-0.07187
-0.020294,-0.10788,-0.050813,-0.0083925,0.062409,-1.0091,-0.20829,-0.055085
0.014191,-0.074922,-0.099336,-0.051423,0.0028992,0.34806,0.19669,-0.02884
0.012055,-0.023957,-0.10941,-0.14176,-0.009308,0.25223,0.18387,-0.030976
-0.039521,0.0071717,-0.1387,-0.10727,-0.063325,0.10849,0.17319,0.021515
-0.085908,0.053559,-0.19791,-0.081331,-0.077974,0.1268,0.13107,0.052033
-0.099641,-0.0016785,-0.095064,0.048981,-0.01236,0.098726,0.076143,0.047761
-0.11551,0.040742,-0.11673,-0.16922,0.043183,0.19821,0.056306,0.086824
-0.15488,0.076448,-0.10697,-0.28214,0.088045,0.062409,-0.050507,0.05539
-0.05539,-0.026703,-0.050202,0.28,-0.076753,-0.078584,0.022736,0.092927
-0.04715,-0.024262,-0.029755,-0.39261,-0.027314,0.060273,0.1149,0.073396
-0.030671,-0.062104,0.015717,-0.12802,-0.12345,0.028534,0.023041,0.020905
0.060273,-0.1088,0.015412,0.027008,-0.051423,0.092622,0.11398,0.086824
0.059358,-0.10056,0.024262,0.045319,0.031891,0.030365,0.032197,-0.020294
0.041047,-0.12161,0.0383,-0.05539,-0.010834,0.019989,-0.013275,-0.11063
0.039216,-0.10086,0.005951,-0.024872,-0.048981,0.030365,0.073701,-0.077668
0.045624,-0.088045,-0.010834,-0.12345,0.045014,-0.037079,0.056306,-0.041962
0.030365,-0.055695,-0.050813,-0.018769,0.10208,-0.0047303,0.099641,-0.065461
0.022736,-0.053864,-0.074311,-0.20676,0.13565,0.0013733,0.090486,0.025788
-0.030365,-0.034943,-0.085908,0.13535,0.041657,-0.06302,-0.12833,0.034333
-0.016632,0.051118,-0.13748,-0.28916,-0.0044251,-0.05417,-0.35447,-0.015717
-0.040742,0.05417,-0.14908,-0.14389,0.017243,-0.055085,-0.072786,-0.017243
-0.17288,0.14145,-0.15854,-0.1207,0.08835,0.013275,0.11612,0.016938
-0.25284,0.0972,-0.13077,-0.11276,0.24063,0.35477,0.1915,0.037079
-0.19242,0.037079,-0.12619,-0.0013733,0.0206,0.43259,0.30045,0.10086
-0.084077,-0.07187,-0.064546,-0.016327,-0.20676,0.12741,0.19181,0.19089
-0.042573,-0.12802,-0.0068666,0.043793,-0.31968,0.067292,0.033112,0.052033
-0.029145,-0.058442,-0.042878,-0.12284,-0.16831,-0.041962,-0.17014,-0.010224
0.066377,-0.080415,-0.0062562,-0.26902,0.094148,-0.42222,-0.37156,0.0077821
0.096895,-0.06363,0.034333,-0.16983,0.13657,-0.99718,-0.52201,-0.068208
-0.0028992,-0.0080873,0.013275,-0.0050355,0.050202,-0.19669,-0.064851,-0.07126
0.057221,-0.11826,0.035554,0.049287,0.010834,0.34104,0.26963,-0.018463
0.066072,-0.10819,0.016022,-0.087739,0.065766,0.17288,0.15549,-0.031586
0.044404,-0.17197,0.041047,-0.05478,0.044404,0.094759,0.052338,-0.04654
0.049592,-0.20768,-0.060883,0.045319,0.015717,0.078889,0.069734,-0.014801
0.018769,-0.08957,-0.099641,-0.075532,0.024262,0.10513,0.057221,0.0050355
-0.031281,0.034333,-0.13321,-0.12314,0.02182,0.083467,0.00045777,-0.021515
-0.085908,0.070344,-0.15183,-0.036164,-0.098421,0.21042,0.0383,0.026093
-0.11215,0.10239,-0.1564,-0.11643,-0.052644,0.09781,0.059358,0.062104
-0.092927,0.05417,-0.14633,-0.012055,0.010834,-0.12802,0.037995,0.085908
-0.069429,0.016022,-0.12222,-0.35935,0.20737,-0.37919,-0.029145,0.042267
-0.11246,0.057527,-0.11612,-0.082551,0.13169,-0.20401,-0.036469,0.023651
-0.038605,-0.015412,-0.051728,-0.096284,-0.095979,0.12528,0.042878,0.082551
0.067597,-0.0795,-0.0383,-0.073396,-0.08835,0.16434,0.095674,0.090486
0.063935,-0.070344,-0.002594,-0.026398,-0.11032,0.14694,0.058442,0.017853
0.0068666,-0.032502,0.028534,0.05539,-0.017548,0.083467,0.013886,-0.032502
-0.038911,-0.035554,0.017853,0.0795,0.087434,0.10056,0.009308,-0.023651
-0.016938,-0.098421,0.016022,-0.06363,0.17746,0.29038,0.019989,-0.015412
0.023346,-0.09781,0.013886,-0.121,0.15122,0.168,-0.020905,0.041657
0.040436,-0.078279,-0.005951,-0.16861,0.0041199,0.18692,0.076753,-0.0090028
0.021515,-0.062715,-0.033112,-0.061189,-0.0032044,0.24735,0.22965,-0.019684
-0.081331,0.043793,-0.074006,-0.065461,0.1207,-0.069429,0.12375,-0.035248
-0.10056,0.02945,-0.11063,0.13443,0.059358,-0.86503,-0.10636,-0.048371
-0.059968,-0.075837,-0.11429,-0.16007,-0.10422,-0.75975,-0.095674,-0.025788
-0.060883,-0.024872,-0.12619,-0.29129,-0.14359,0.71519,0.055085,-0.034333
-0.05478,0.0022889,-0.13107,-0.19089,-0.35538,0.41428,-0.047456,-0.010529
-0.072175,-0.024872,-0.10361,-0.05478,0.031891,-0.72099,-0.13993,-0.026398
-0.081636,0.016632,-0.12741,-0.041352,-0.10727,-0.12802,-0.11551,-0.02884
-0.043488,-0.030976,-0.12131,-0.069429,0.075532,0.005951,-0.051423,0.039521
-0.021515,-0.032197,-0.060883,-0.066682,0.33677,-0.27359,-0.093538,0.066377
-0.0056458,-0.002594,-0.050507,-0.016022,-0.01236,0.14755,-0.13169,0.060578
0.044404,-0.11337,0.017548,-0.086824,-0.06363,0.31876,0.061189,0.07248
0.009308,-0.1088,0.019684,-0.051423,0.011749,0.13565,0.050507,-0.0050355
0.011444,-0.10208,0.036469,-0.070344,0.033417,0.16953,0.12192,-0.017548
0.014801,-0.092927,0.034638,-0.060578,0.051118,0.34257,0.061799,0.0050355
-0.030671,-0.025483,0.009308,-0.085603,-0.053254,0.38285,-0.12528,0.0096132
-0.016938,-0.02945,-0.0053407,0.02884,-0.022431,-0.14176,0.044404,0.017243
-0.045014,-0.023346,-0.046845,-0.026703,0.076143,-0.023651,0.01297,0.00045777
-0.018158,-0.035554,-0.084382,-0.10941,0.057221,-0.17594,-0.27298,0.022736
-0.0795,0.067597,-0.12772,-0.14389,0.21195,-1.0967,-0.16403,-0.031891
-0.057527,-0.013581,-0.15396,-0.10361,0.17929,-0.17258,0.05539,-0.019684
-0.10636,0.053864,-0.1445,-0.17868,-0.17807,0.5153,0.25742,0.091402
-0.13169,0.044099,-0.14755,-0.14328,-0.11612,0.20798,0.16861,0.055085
-0.058747,0.00015259,-0.11032,-0.061189,-0.047761,0.17746,0.10452,0.1326
0.0019837,-0.07248,-0.081331,0.096895,-0.037385,0.11124,0.10697,0.074311
-0.017243,-0.015717,-0.091402,-0.11337,-0.041352,0.06424,0.14206,-0.0096132
-0.039521,0.018463,-0.062104,-0.16068,-0.0083925,0.033112,0.08957,-0.073091
-0.038911,-0.070039,0.0086976,-0.030365,-0.077363,0.10544,-0.037079,0.02945
-0.035248,-0.059358,0.013275,-0.0028992,0.061494,0.072175,-0.092317,0.068208
0.031586,-0.098116,0.034333,-0.48173,0.15427,0.023041,-0.0013733,0.024262
0.092317,-0.13626,0.01236,-0.25834,0.029145,0.0010681,0.04654,-0.059358
0.045624,-0.1323,0.042878,0.70207,-0.052949,0.016327,0.0047303,-0.1564
0.067903,-0.11215,-0.014191,0.032502,-0.016632,-0.012055,0.0090028,-0.075532
0.10025,-0.13535,0.002594,-0.27604,0.070649,0.011139,0.043183,-0.017548
0.02121,-0.084077,-0.023957,-0.15305,0.02884,0.032807,0.0099184,-0.093538
-0.027314,-0.031891,-0.068513,0.024872,0.0041199,-0.0062562,0.012055,-0.051423
0.013581,-0.066682,-0.10849,0.13626,0.03769,-0.0016785,0.084077,0.057527
-0.096284,0.052338,-0.16495,-0.32364,0.098726,-0.020294,-0.00045777,-0.013275
-0.12009,0.091707,-0.20951,-0.20768,-0.039521,0.023957,-0.0044251,0.0383
-0.15763,0.057221,-0.14389,-0.13687,-0.12009,-0.025483,-0.059358,0.095674
-0.15671,0.054475,-0.1091,-0.042878,-0.0022889,-0.098726,-0.18723,0.11093
-0.12467,0.067292,-0.12619,-0.099947,0.054475,0.074922,-0.023651,0.16007
-0.11612,0.08835,-0.063935,-0.095369,0.005951,0.054475,0.040436,0.15702
-0.059052,0.0056458,-0.019989,-0.084688,0.022736,-0.10727,0.048981,0.1265
-0.038605,-0.067903,-0.01297,-0.0795,0.010529,0.037995,0.099031,0.041047
-0.03769,-0.068818,0.018463,-0.091096,-0.060578,0.016938,0.098421,0.030976
-0.020905,-0.082856,0.02945,-0.020294,-0.084688,0.046845,0.10758,0.031281
0.039216,-0.18448,0.086519,0.096284,0.023957,0.093538,0.11856,-0.0065614
0.084688,-0.24552,0.040436,0.024872,0.13169,0.16281,0.12985,-0.060578
0.047456,-0.15854,-0.016327,-0.6627,0.061494,0.061189,0.099641,-0.077058
0.023346,-0.075532,-0.020294,0.36698,-0.045014,-0.15,-0.096895,-0.075227
0.0090028,0.022736,-0.085298,-0.091402,0.037995,-0.022736,-0.18387,-0.11856
-0.032807,0.036164,-0.11643,-0.15854,0.085298,0.058442,-0.038911,-0.043793
-0.070649,0.023957,-0.18387,0.11246,0.035248,-0.085908,-0.41611,-0.022736
0.044404,-0.039826,-0.12039,0.04654,-0.052949,-0.1387,-0.10941,0.078279
-0.00045777,-0.035859,-0.12314,-0.23423,-0.069123,0.018158,0.10391,0.045624
-0.078889,0.040436,-0.14725,-0.20371,0.066682,0.020905,0.056611,-0.03769
-0.0090028,-0.062409,-0.12711,-0.1854,0.019989,0.085298,0.066072,0.064546
-0.057832,0.064546,-0.10697,-0.19394,-0.053559,0.30625,-0.044709,0.051423
-0.074922,0.075227,-0.053864,0.024872,-0.056611,-0.12863,-0.054475,0.041657
-0.031891,0.0041199,-0.052644,-0.23606,0.078584,-0.70817,-0.0062562,0.013581
-0.0022889,-0.034943,0.026703,-0.16098,0.12406,0.042878,0.15213,-0.04715
-0.010529,-0.076143,0.034333,0.015717,-0.035248,0.19181,0.1268,-0.070649
-0.0068666,-0.10178,0.045624,0.072175,-0.055695,0.10727,0.045624,-0.06363
0.025177,-0.096284,-0.0053407,-0.009308,-0.11704,0.16892,0.1207,0.0016785
0.028229,-0.10452,0.010529,0.00076295,-0.045014,0.18021,0.13321,0.0099184
0.017243,-0.10544,0.018463,0.076753,0.049287,0.081636,0.14908,0.014801
0.070649,-0.08957,-0.044404,-0.13169,0.0206,-0.053254,0.036774,-0.016632
0.010529,-0.026093,-0.081025,-0.18936,0.049897,-0.30716,-0.27054,-0.1564
-0.017548,-0.074311,-0.096284,-0.070649,0.070039,0.039521,-0.34409,-0.069734
-0.042573,-0.0074769,-0.13687,-0.069734,0.011749,0.27848,-0.12314,0.049287
-0.10178,0.035859,-0.15396,-0.13565,-0.043793,0.013886,-0.0795,0.029145
-0.11398,0.066377,-0.14145,-0.095064,-0.0795,-0.07187,0.036774,0.052338
-0.12619,0.094759,-0.11429,-0.047761,0.094453,-0.2446,0.12802,0.11398
-0.098116,0.044709,-0.10086,0.050813,0.22446,-0.2678,0.062409,0.11093
-0.066987,0.031891,-0.10849,-0.099336,-0.079805,-0.044404,0.0086976,0.084382
-0.10361,0.044709,-0.030365,-0.17411,0.0047303,0.14572,0.095674,0.08011
-0.19608,0.027314,-0.02884,0.11948,-0.010529,0.20188,0.15457,0.08835
-0.18448,-0.066377,0.028534,-0.24918,0.038911,0.17014,0.099031,0.18265
-0.085603,-0.10819,0.042878,-0.22721,0.16922,0.18296,0.12711,0.20768
0.015106,-0.12955,0.028229,0.069429,-0.024872,0.24552,0.10239,0.13657
0.091707,-0.13993,0.030976,-0.017548,-0.070954,0.17777,0.018769,-0.0074769
0.11215,-0.10056,0.0022889,-0.073396,0.033722,-0.052033,-0.087739,-0.13993
0.11795,-0.12894,-0.0086976,-0.11276,-0.023041,-0.4033,-0.052644,-0.13748
0.090486,-0.11612,-0.058137,-0.068818,-0.15457,-0.67216,-0.00076295,-0.13687
0.033722,-0.088045,-0.055695,0.08896,0.0056458,0.10513,-0.046845,-0.19944
-0.015412,-0.015717,-0.15152,-0.15671,-0.02945,0.10452,-0.023041,-0.11917
-0.044404,0.00015259,-0.17746,-0.21683,0.076448,0.06363,0.072175,-0.024262
-0.022431,-0.039826,-0.13474,0.10208,0.10941,0.4799,-0.059968,0.02121
-0.077058,0.07187,-0.15,-0.08835,-0.012665,0.53178,-0.096284,0.031281
-0.047456,0.055085,-0.1088,-0.089265,-0.053254,0.44663,0.14633,0.057221
-0.057832,0.084077,-0.11704,-0.17716,0.0383,0.095674,0.25498,0.12711
-0.057832,0.055695,-0.061189,-0.35752,0.10361,-0.49607,0.07187,0.079194
-0.038911,-0.048676,-0.0068666,0.041657,-0.019074,-0.34684,0.13107,0.057527
-0.0047303,-0.10239,-0.0016785,-0.039521,-0.16831,-0.4332,0.059052,-0.0062562
-0.024872,-0.085908,0.011749,-0.040436,-0.24033,-0.14359,-0.42435,-0.018463
0.011749,-0.10697,0.026093,-0.04654,0.25986,-0.88304,-0.25711,0.02121
0.024872,-0.066377,0.00076295,-0.019379,0.29465,-0.31052,-0.073701,0.016022
0.033112,-0.12863,0.0074769,-0.039216,-0.027008,0.57267,-0.14176,-0.053864
0.027924,-0.09659,0.009308,-0.049592,-0.035554,0.28214,0.10056,-0.089876
0.011139,-0.071565,-0.024872,0.03006,-0.00015259,0.20798,0.24949,-0.10697
-0.022431,-0.034638,-0.058137,-0.13352,0.011749,0.17014,-0.027314,-0.077974
-0.018463,-0.02884,-0.081025,-0.050202,0.022736,0.13993,-0.39506,-0.057221
-0.0083925,-0.014496,-0.13321,-0.1326,-0.030671,0.14115,0.021515,-0.013581
-0.066987,0.047456,-0.14878,-0.045624,0.016022,0.01297,0.044404,0.0028992
-0.11856,0.084688,-0.17288,-0.25772,0.032807,-0.11368,-0.002594,0.083467
-0.090181,0.058442,-0.1384,-0.23484,-0.00045777,-0.024262,0.11917,0.14603
-0.023346,-0.014801,-0.1088,0.14725,-0.11185,0.13596,0.11246,0.093843
-0.059663,0.023957,-0.094148,-0.15061,-0.037079,0.05417,0.038911,0.015412
-0.059358,-0.0096132,-0.073091,-0.073701,-0.0090028,0.043183,0.042878,0.014801
-0.041047,-0.05478,-0.050202,-0.099947,0.013581,0.056306,0.079194,0.06424
-0.012055,-0.045319,0.009308,-0.25834,0.040436,0.05478,0.092622,0.083467
0.017243,-0.06363,0.034333,0.34043,0.045319,0.031586,0.067903,0.074006
-0.012665,-0.075532,0.050813,-0.14664,0.053559,-0.018158,0.023041,0.0032044
-0.027314,-0.082551,0.0083925,-0.099336,-0.090181,0.0047303,0.0035096,-0.054475
0.056306,-0.19547,0.023346,-0.092927,-0.042878,-0.0074769,0.0086976,-0.018158
0.014801,-0.11551,0.014496,-0.032807,0.055085,-0.00076295,0.00076295,-0.056611
-0.14023,0.043488,-0.064546,-0.058442,0.013581,0.10941,0.050202,-0.062104
-0.061799,-0.077974,-0.049897,-0.029145,0.084688,0.11063,0.085908,0.052338
0.016938,-0.12802,-0.10208,-0.14359,0.1149,0.11124,0.088045,0.098726
-0.022736,-0.0074769,-0.14145,-0.15549,0.0071717,0.20584,0.11154,-0.047456
-0.084077,0.032502,-0.16129,0.1265,-0.12955,0.22629,0.056001,-0.017548
-0.1207,0.090486,-0.16556,-0.21622,0.023041,0.047456,-0.18784,0.054475
-0.067903,0.023346,-0.121,-0.28122,0.063325,-0.50767,-0.20249,0.12619
-0.041047,0.005951,-0.093233,-0.35843,-0.11124,-0.80858,-0.16678,0.11215
-0.051728,0.013581,-0.094148,-0.42985,0.074311,-0.090791,0.0099184,0.030976
-0.074922,0.032197,-0.038605,0.60288,0.033112,-0.0074769,0.10666,-0.060883
-0.092012,0.029755,-0.0099184,0.08835,-0.11521,0.12406,0.11002,0.031281
-0.0019837,-0.068513,0.015412,-0.048981,-0.012055,0.10117,0.13504,0.10452
0.011444,-0.095369,0.027619,-0.13596,0.11246,0.018463,-0.14786,-0.0050355
0.018769,-0.08835,0.027314,-0.21683,0.075227,0.1146,-0.34409,-0.11185
0.049287,-0.11887,0.023346,-0.12284,-0.092012,0.35477,-0.052033,-0.095674
0.062104,-0.12863,0.0056458,-0.0032044,-0.07126,0.093843,0.12406,-0.049592
0.058137,-0.12955,-0.02182,0.046845,0.0053407,-0.039216,0.12436,0.00076295
0.037079,-0.10391,-0.061189,-0.05417,0.056001,-0.0041199,0.084382,-0.053864
-0.020294,-0.05539,-0.063325,-0.17533,0.062409,-0.042878,0.095369,-0.0206
-0.012665,0.0096132,-0.13718,-0.28611,0.11643,-0.049897,0.076753,0.016938
-0.015106,0.058747,-0.11154,0.35477,0.024872,0.26169,0.13321,0.032807
-0.039216,0.029755,-0.13046,-0.065156,-0.10117,0.39414,0.099947,-0.020294
-0.030976,-0.00045777,-0.15061,-0.051118,-0.077058,0.26993,-0.0074769,-0.0074769
0.053559,0.0099184,-0.14878,-0.15396,-0.021515,0.12741,-0.17075,-0.0013733
-0.019379,0.056306,-0.12284,0.015106,-0.063935,-0.1033,-0.17502,-0.030976
-0.023041,-0.039521,-0.058442,-0.38834,0.2623,-0.91234,-0.12589,0.016938
-0.062715,-0.021515,-0.036164,-0.29587,0.31846,-1.0259,-0.10544,-0.0032044
-0.11429,-0.012055,0.0096132,-0.14572,-0.08896,0.012055,0.081331,-0.030976
-0.043793,-0.13535,0.017243,0.015412,-0.12161,0.40482,0.14511,0.085908
0.014801,-0.15091,0.02945,-0.041047,-0.081331,0.28031,0.085298,0.088045
0.0074769,-0.13962,0.028534,0.024567,-0.043488,0.24857,0.013886,-0.025177
-0.047456,-0.036469,0.026703,-0.050813,-0.023041,0.21775,0.032197,-0.039826
-0.066072,-0.048371,0.023651,0.015106,0.020905,0.21317,0.06424,0.02182
-0.08072,-0.038605,-0.029145,0.049592,0.048066,0.31479,0.22171,0.041352
-0.068208,-0.0065614,-0.13535,-0.13504,0.033722,0.47868,0.48203,0.081331
-0.077363,-0.0074769,-0.11215,-0.17868,-0.070039,0.021515,0.30777,0.073701
-0.053559,0.0099184,-0.11276,-0.070649,-0.08072,-0.27695,0.041657,0.059052
-0.081025,0.031891,-0.13931,-0.016022,0.031281,0.31571,-0.62486,0.032807
-0.048676,0.035859,-0.15518,-0.087129,-0.040436,-0.27359,-0.73442,0.032807
-0.022736,0.029755,-0.12772,-0.13169,0.094453,-1.3933,-0.16983,0.027314
-0.051118,0.070039,-0.13138,-0.10147,0.42283,-1.2047,-0.11063,0.015717
-0.056611,0.026093,-0.092012,-0.092927,0.091707,0.062715,0.20249,0.061189
-0.067903,0.028229,-0.050202,-0.086824,-0.17227,0.55131,0.35325,0.070039
-0.014801,-0.077974,-0.033722,-0.014801,-0.12406,0.37247,0.18631,0.062409
-0.041962,-0.02182,-0.0206,-0.10971,-0.068513,0.32334,-0.043488,0.016938
0.024262,-0.11398,0.023346,-0.078584,-0.024567,0.17807,-0.12039,-0.024567
0.04715,-0.12436,0.034028,-0.11063,-0.051728,0.075532,-0.11185,-0.030671
0.043793,-0.1622,0.058137,-0.0071717,-0.10025,0.10971,0.055085,-0.053559
0.092317,-0.20401,0.019989,0.016022,-0.059358,0.10666,0.074311,-0.070649
0.086519,-0.21439,0.04654,-0.012055,0.031586,0.18692,0.017853,-0.14786
0.05417,-0.14633,-0.073091,-0.18509,0.015106,0.21439,0.047456,-0.11948
0.047456,-0.051423,-0.090181,0.12314,0.05539,0.078889,0.065766,-0.067292
0.0071717,-0.0099184,-0.1265,-0.035248,0.34012,0.005951,0.092927,-0.05539
-0.096895,0.15579,-0.15305,-0.2092,0.20768,-0.0038148,0.090181,-0.058137
-0.087434,0.064546,-0.13901,-0.14755,-0.1799,-0.052949,-0.103,0.08072
-0.13779,0.12222,-0.15244,-0.17105,-0.083772,-0.60929,-0.22171,0.095369
-0.11734,0.092317,-0.14115,-0.22568,0.019074,-0.20035,0.025177,0.096284
-0.094453,0.084382,-0.1323,-0.096895,-0.070649,0.41032,0.2031,0.075837
-0.10758,0.055085,-0.084993,-0.034333,-0.035248,0.15763,0.11063,0.027008
-0.064851,-0.090486,-0.0047303,0.027924,0.0016785,0.050507,0.11673,0.049287
-0.031586,-0.088045,0.0044251,-0.041657,0.052033,0.018769,0.18265,0.076143
0.052033,-0.12802,0.017243,-0.050507,-0.16648,0.073701,0.1442,0.080415
0.085603,-0.096284,0.019379,-0.1677,-0.19913,0.057221,-0.010224,0.080415
-0.01297,-0.034943,0.023957,-0.016938,0.15488,-0.078584,-0.2504,-0.0047303
-0.0080873,-0.075837,0.01236,-0.06302,0.051423,-0.045319,-0.36606,0.015412
-0.032807,-0.10758,0.0056458,-0.10727,0.1619,0.078279,-0.15763,-0.0074769
-0.024567,-0.13474,0.011444,-0.0096132,0.025788,0.1091,-0.04654,-0.044709
-0.073396,-0.040436,-0.059358,-0.081636,0.0080873,-0.071565,-0.057221,-0.10239
-0.087434,-0.016327,-0.081331,-0.21195,0.039216,-0.033417,0.10483,-0.079194
-0.044404,-0.016327,-0.10056,0.0050355,-0.051118,0.0086976,0.097505,-0.024567
-0.095064,0.04654,-0.17197,0.31083,-0.07126,0.0050355,0.023346,-0.095369
-0.10575,0.030365,-0.13321,-0.12039,-0.022736,-0.0096132,0.048066,-0.00076295
-0.05478,0.019989,-0.14755,-0.47623,0.067597,-0.039216,0.055695,0.090181
-0.016327,0.063935,-0.15335,-0.11734,0.13046,0.031281,0.085908,0.1442
-0.033112,0.017243,-0.10361,0.12222,0.10056,0.020294,0.03006,0.06363
-0.064546,0.0044251,-0.061189,-0.0972,-0.0041199,-0.022736,0.016632,0.050507
-0.052949,0.023651,-0.048676,-0.22293,-0.010224,-0.00015259,0.050202,0.13535
-0.040742,-0.089876,0.022736,-0.1268,0.033112,0.023041,0.089265,0.13107
0.027924,-0.13046,0.04654,-0.0053407,-0.1384,0.1091,0.1796,0.0383
0.10422,-0.18082,0.043793,0.034638,-0.06302,0.052338,0.16831,-0.043183
0.1564,-0.26169,0.036469,-0.036164,0.011749,-0.0096132,0.12161,-0.16464
0.043793,-0.08072,-0.011749,-0.2031,-0.0035096,-0.0090028,-0.0035096,-0.18387
-0.012055,-0.045319,0.0086976,0.014496,-0.018158,0.0022889,-0.3035,-0.08957
-0.00015259,-0.038911,-0.02884,0.042573,0.084077,-0.065156,-0.39048,0.002594
-0.0056458,0.00015259,-0.074311,-0.2858,0.17075,-0.10056,-0.14572,0.0086976
0.0068666,-0.028229,-0.103,0.31388,0.044404,-0.016327,0.0383,-0.034943
-0.031586,0.019074,-0.13107,-0.032197,0.026703,0.0077821,0.11521,-0.030365
-0.066072,-0.0065614,-0.15671,-0.26963,0.032807,-0.031281,0.057221,-0.057221
-0.093843,0.00045777,-0.12924,-0.2211,-0.103,0.055695,0.078584,-0.028534
-0.10513,0.082551,-0.14145,-0.11246,-0.08896,0.17563,0.10269,0.079194
-0.082856,0.0071717,-0.11612,-0.059358,-0.043793,0.20523,0.16526,0.077974
-0.050813,-0.0080873,-0.072786,0.0028992,-0.0047303,0.13809,0.13199,0.097505
-0.076143,0.0065614,-0.064851,-0.017548,0.016632,0.10758,0.057527,0.068513
-0.014801,-0.014801,-0.056916,-0.14603,-0.0071717,0.2092,-0.023346,0.10605
-0.010529,-0.0077821,0.0053407,-0.05539,0.042878,-0.35996,-0.30137,0.13107
0.059358,-0.13657,0.052338,-0.028534,0.05539,-1.0521,-0.34226,0.027314
0.050507,-0.13687,0.027314,-0.12314,-0.11704,0.037079,0.10361,-0.0086976
-0.018463,-0.090791,0.011749,-0.32517,-0.095064,0.19516,0.15335,-0.050507
0.0041199,-0.14755,0.010529,0.439,0.18082,-0.15,0.021515,-0.012055
-0.0010681,-0.081941,-0.0090028,-0.27176,0.085298,0.16373,0.069429,-0.01236
0.0383,-0.07248,-0.036774,-0.15518,-0.015106,0.27878,0.11612,-0.030976
-0.013581,0.014191,-0.08011,-0.028534,-0.077974,0.15579,0.14023,0.00076295
-0.10605,0.046235,-0.11612,-0.064851,0.025177,0.0010681,0.023041,-0.059663
-0.12222,0.022431,-0.13169,-0.061799,0.047761,-0.023957,0.017548,-0.026703
-0.11521,0.039216,-0.13626,0.0065614,0.024262,-0.024262,-0.086824,0.049287
-0.10147,0.031586,-0.13382,-0.075227,0.054475,-0.0022889,-0.2034,0.077974
-0.13809,0.056306,-0.10941,-0.13291,0.0056458,0.067597,0.11307,-0.00015259
-0.12192,0.06424,-0.10147,-0.14603,-0.014191,0.2388,0.38437,0.026093
-0.066682,0.017243,-0.077363,-0.02884,-0.010529,0.45121,0.32609,0.088045
-0.023041,-0.010834,-0.0080873,-0.15732,-0.033112,0.37827,0.1915,0.042878
-0.02884,-0.029755,-0.068208,-0.072786,0.027924,0.16892,-0.15488,0.025177
-0.0013733,-0.10025,0.013886,0.049592,-0.041962,-0.77958,-0.47166,0.035248
0.090486,-0.16983,0.036164,-0.10147,-0.034638,-1.0222,-0.32547,0.032807
0.078584,-0.13565,0.026398,-0.40055,0.011444,0.26535,-0.18418,-0.043793
0.063325,-0.16648,0.045014,-0.33371,0.12863,0.38956,-0.095064,-0.053254
0.050507,-0.16861,-0.012665,0.58335,0.033722,0.16678,0.013886,-0.04715
0.038911,-0.10819,-0.045624,-0.21012,0.0077821,0.34226,0.067597,-0.095064
0.04654,-0.12833,-0.073091,-0.19059,0.10758,0.34012,0.14939,-0.10513
0.011749,-0.031891,-0.053864,0.3682,0.14633,-0.025788,0.11276,-0.031891
-0.057832,0.032197,-0.11093,-0.37461,-0.19272,-0.55253,0.0080873,-0.031891
-0.095369,0.062104,-0.14298,-0.16709,-0.26841,-0.7808,0.012055,-0.0047303
-0.049592,0.052644,-0.15122,-0.0090028,0.22263,-0.090791,0.095369,0.052033
-0.083162,0.07126,-0.16129,-0.096284,0.18662,0.13321,0.1442,0.023957
-0.12375,0.077668,-0.12161,-0.062715,-0.065156,0.30106,0.11704,0.019989
-0.057221,0.015106,-0.12528,-0.12802,-0.058442,0.1973,0.082856,0.12192
-0.022431,-0.002594,-0.083467,-0.18387,-0.039216,0.13779,-0.0019837,0.068208
0.0010681,-0.040742,-0.043183,-0.17716,-0.1442,0.084382,-0.22141,0.019074
0.023346,-0.066072,0.0038148,0.1796,-0.22324,-0.076143,-0.18723,0.059663
-0.031281,-0.025788,0.023346,0.10758,-0.059968,0.32273,0.083467,0.027924
0.013275,-0.12894,0.045624,-0.082856,0.29313,-0.35996,-0.0032044,0.021515
0.020294,-0.14267,0.02182,-0.068818,0.31449,-0.44816,-0.15396,0.030365
0.020905,-0.066987,0.011749,-0.22965,0.35569,0.068208,-0.045624,0.0080873
0.041047,-0.08072,0.0062562,-0.0972,0.030365,0.12711,0.1564,-0.0096132
0.0028992,-0.08835,-0.014191,-0.044099,-0.2092,0.21103,0.20371,-0.062715
-0.023651,-0.056916,-0.072175,-0.062715,-0.079194,0.16892,0.20249,-0.10239
-0.12406,0.027619,-0.11154,-0.11154,-0.094759,0.14817,0.17288,-0.11154
-0.19516,0.091096,-0.12467,-0.1857,-0.081025,0.23178,0.17685,-0.065766
-0.14054,-0.009308,-0.14664,0.48447,-0.058747,0.082856,-0.18845,0.058137
-0.14969,0.04715,-0.14633,-0.15915,-0.014191,-0.14969,-0.47868,0.11032
-0.11246,0.063325,-0.12955,-0.38926,0.15946,-0.075837,-0.030365,0.19791
-0.083162,0.066682,-0.12955,-0.30167,-0.045319,-0.12741,0.15549,0.19272
-0.027314,-0.052644,-0.082246,-0.095064,0.040436,-0.28244,0.35691,0.16861
-0.026703,-0.0083925,-0.069123,-0.036164,0.064546,-0.27085,0.3917,0.069123
0.0035096,-0.031586,-0.058442,-0.058747,-0.030671,0.26596,0.23819,-0.018463
0.052949,-0.18448,0.014496,-0.091402,-0.07187,0.24155,-0.27878,-0.094148
0.045624,-0.11276,0.0083925,-0.033722,-0.087129,0.096895,-0.74815,-0.070039
0.027008,-0.092927,0.016327,-0.070344,-0.039521,0.24674,-0.38865,-0.091096
0.0065614,-0.066987,0.045624,-0.15061,0.053864,0.2678,-0.035248,-0.093233
0.028229,-0.073396,0.034333,0.096284,0.063935,0.1912,0.19364,-0.0013733
0.053559,-0.10056,0.038605,0.053559,-0.10819,0.17807,0.20188,0.0086976
0.041962,-0.10025,-0.038605,0.041047,-0.22904,0.051118,0.027314,-0.065156
0.032807,-0.08896,-0.084382,0.026703,0.48631,-0.71092,-0.077974,-0.043793
-0.015412,-0.00076295,-0.10971,-0.26352,0.48569,-1.2877,-0.041657,-0.076753
0.052033,-0.1326,-0.14298,-0.12314,-0.094759,0.083467,0.16709,-0.039216
-0.028534,0.07248,-0.18082,-0.17929,-0.14664,0.34989,0.14694,-0.066072
-0.11826,0.11521,-0.14878,-0.11368,-0.11521,0.16526,0.10697,-0.034638
-0.11185,0.050202,-0.1207,-0.11063,-0.096284,0.20737,0.2031,0.13077
-0.10452,0.062409,-0.11612,-0.10269,0.0041199,0.062409,0.18265,0.15824
-0.069123,0.039521,-0.08072,-0.078279,0.021515,0.020905,0.059358,0.11276
-0.08072,0.011444,-0.037079,0.0080873,-0.032502,0.022126,-0.34379,0.057527
-0.04654,-0.058442,-0.016938,-0.12589,-0.02121,0.0383,-0.41917,0.051728
0.039216,-0.11856,0.024872,-0.02121,-0.052949,0.15,0.12833,0.09781
0.016632,-0.071565,0.026398,-0.11765,-0.08896,0.15,0.16739,0.036774
0.045624,-0.10605,0.02182,-0.023651,0.016022,0.042573,0.082856,0.023041
0.066377,-0.14847,0.025483,0.18357,0.077668,-0.017243,0.00076295,-0.0080873
0.012055,-0.06424,-0.030671,-0.26596,0.043488,0.027314,-0.14145,-0.075532
-0.034333,-0.094453,0.018769,0.13291,0.0032044,0.085298,0.035554,-0.072786
-0.066072,0.014191,-0.066987,-0.50187,0.037385,0.078279,0.15213,-0.0080873
-0.085603,-0.024872,-0.07248,0.019379,0.1149,-0.0071717,0.07248,-0.087739
-0.072786,-0.016938,-0.12894,-0.096895,-0.011139,0.04654,0.067903,-0.079805
-0.087434,0.019379,-0.15305,-0.099336,0.032807,0.1033,0.11307,-0.047456
-0.10056,0.022736,-0.1445,-0.11521,-0.019379,0.058442,0.074617,-0.020294
-0.10758,0.050202,-0.15671,-0.062409,-0.072786,-0.34104,-0.054475,0.041657
-0.053559,0.045624,-0.12985,-0.089876,-0.035554,-0.24857,-0.075227,0.026093
-0.077974,0.022431,-0.082551,-0.081636,-0.016938,0.25467,-0.11643,0.070039
-0.056916,-0.012665,-0.072786,-0.074311,0.048066,0.12467,-0.31174,0.215
-0.0074769,-0.036164,-0.056916,-0.061189,0.066377,-0.25895,-0.041047,0.2269
0.045624,-0.10697,0.023651,-0.15305,0.095369,-0.34958,0.11063,0.040131
-0.020905,-0.072786,0.089265,0.0090028,0.034028,0.25986,0.23178,-0.06302
-0.010834,-0.11795,0.018463,-0.071565,-0.019074,0.30503,0.22812,0.0019837
0.069123,-0.20493,-0.019989,-0.11734,-0.059052,0.22629,0.17288,0.047761
0.082246,-0.12253,0.01236,-0.022736,0.033112,0.099031,-0.075532,-0.058137
0.059968,-0.066682,0.009308,-0.034943,0.043183,-0.16648,-0.17868,-0.10605
0.061799,-0.1384,-0.0080873,0.063935,-0.051423,-0.63493,0.022736,-0.085908
0.035554,-0.089876,-0.087434,-0.0090028,0.016938,0.15579,0.20249,-0.039826
0.011749,-0.027924,-0.077363,-0.18387,0.015412,0.58091,0.12833,-0.078279
-0.022126,-0.023346,-0.11551,-0.016632,0.0038148,0.13138,0.061189,-0.030671
-0.017243,0.053254,-0.18692,-0.093233,0.13382,0.041657,-0.20859,0.0086976
-0.073396,0.090181,-0.14267,-0.20706,0.13687,-0.85191,-0.57145,-0.010834
-0.17899,0.15335,-0.14511,-0.18997,-0.0065614,-0.94469,-0.19089,-0.035859
-0.21317,0.092622,-0.098421,-0.0972,-0.084993,0.58,0.21927,0.08835
-0.13382,0.058137,-0.08896,0.096895,-0.048676,0.52964,0.17014,0.15824
-0.10391,0.047456,-0.039216,-0.012665,-0.030976,0.074922,0.15793,0.050202
-0.065156,-0.08896,-0.032807,-0.31724,0.019074,0.26017,0.18051,0.045319
-0.058137,-0.12985,-0.023957,-0.10575,-0.010834,0.13657,0.16129,0.12375
-0.031281,-0.079805,0.0206,-0.057221,-0.091707,0.18173,0.18143,0.085298
0.043183,-0.13626,0.050507,-0.036164,-0.26505,0.16892,0.1857,0.0383
0.072175,-0.18082,0.025483,0.058137,-0.083162,-0.076448,0.037995,-0.028534
0.033722,-0.060578,-0.011444,-0.14298,0.23117,0.063325,-0.19699,-0.074006
0.045624,-0.073396,-0.0206,-0.070344,0.073701,0.066377,-0.35355,-0.083162
0.037385,-0.057527,-0.023041,-0.040436,0.25986,-0.89067,-0.26078,-0.085298
-0.02121,0.019989,-0.078889,-0.11398,0.22202,-0.18387,-0.0074769,-0.065766
-0.040436,-0.00076295,-0.10941,-0.00076295,-0.10361,0.3566,0.041657,-0.043793
-0.057527,0.02121,-0.11978,-0.031586,-0.052033,0.17563,-0.029755,-0.017243
-0.057832,0.035554,-0.14328,-0.44846,-0.02121,0.057527,-0.0056458,0.027619
-0.066987,0.021515,-0.13443,-0.16464,-0.10208,-0.016022,0.043488,0.051118
-0.10452,0.073091,-0.13382,0.31785,0.057527,-0.38346,0.075532,0.052949
-0.064546,0.016022,-0.099336,0.1564,0.070344,-0.22538,0.13779,0.11398
-0.053254,-0.010834,-0.084688,-0.34379,-0.063935,0.22782,-0.023346,0.11978
-0.066987,-0.00076295,-0.076448,-0.16983,-0.024567,0.19974,-0.15824,0.13321
0.0041199,-0.11673,-0.017853,0.0099184,-0.023651,0.17288,0.17441,0.12924
0.04715,-0.13199,0.026703,0.0090028,0.061494,0.073396,0.15793,0.031891
0.037079,-0.12039,0.039521,-0.13687,0.061799,0.031281,0.031281,-0.027008
0.033112,-0.09781,0.018463,-0.041047,-0.059358,0.081331,-0.0062562,-0.045319
0.029755,-0.086824,0.026398,0.041047,-0.056001,0.056306,0.017243,-0.066682
0.02945,-0.077363,-0.0086976,-0.19944,0.017243,-0.019379,-0.035248,-0.061494
0.064546,-0.086824,0.0071717,0.0047303,0.014801,-0.0047303,-0.024872,-0.064851
0.030365,-0.06363,-0.061189,0.13443,-0.00076295,0.034638,0.059052,-0.11795
-0.076143,0.032502,-0.091402,-0.39689,0.074617,-0.00076295,0.039216,-0.093538
-0.02945,-0.026093,-0.10697,0.34562,0.075837,-0.00076295,0.009308,-0.00076295
-0.086213,0.063935,-0.17472,-0.41184,0.010834,-0.0068666,0.010529,-0.012665
-0.096895,0.082551,-0.15579,-0.13565,0.022736,-0.015412,-0.013581,0.0090028
-0.081331,0.022126,-0.13474,-0.034943,-0.025788,0.03006,0.0038148,0.087434
-0.025177,0.0083925,-0.11612,-0.099947,0.016632,-0.015106,-0.025483,0.057527
0.0053407,-0.020294,-0.10819,-0.1384,-0.024872,0.012055,0.013581,-0.015717
0.0028992,-0.067597,-0.027619,-0.094453,-0.034638,0.017853,0.041962,0.014801
-0.044404,-0.027619,-0.056916,-0.18906,-0.052033,0.034028,0.025788,0.061189
-0.009308,-0.10147,0.01236,0.072175,-0.023346,0.033112,0.065461,0.12009
0.0019837,-0.098726,0.025788,0.04593,0.0028992,0.023041,0.089265,0.029145
-0.012055,-0.11612,0.03006,-0.17594,0.08835,-0.017853,0.059358,-0.060883
0.019074,-0.13596,0.019684,-0.1619,0.047761,0.044099,0.065461,-0.030365
-0.045624,-0.04654,0.0013733,0.0206,0.0038148,0.070649,0.084077,-0.01297
-0.094453,0.0056458,0.00015259,0.099031,0.022736,-0.08072,-0.013581,-0.03769
-0.041047,-0.025483,-0.028229,-0.036469,0.18509,-0.059358,-0.0206,0.058442
0.013886,-0.061799,-0.056611,-0.23484,0.28824,0.015412,-0.14694,0.026703
0.014801,-0.082551,-0.096284,0.068208,0.06302,0.04654,-0.39445,-0.033722
-0.073701,0.0044251,-0.15183,-0.29343,-0.11032,0.13718,-0.13565,-0.030976
-0.15061,0.024567,-0.14633,-0.26169,-0.41581,0.041352,0.082856,0.10025
-0.083162,-0.010834,-0.14328,-0.010834,-0.21714,-0.37766,0.066682,0.15091
-0.057221,0.052644,-0.14267,-0.058442,0.2089,-0.48173,0.10483,0.085603
-0.094148,0.084077,-0.12284,-0.12467,-0.054475,0.20645,0.32914,0.056001
-0.1033,0.074617,-0.10971,-0.08957,0.014801,0.26017,0.27115,0.051728
-0.04593,0.024262,-0.059052,-0.09781,0.07248,0.05478,-0.034943,0.053559
0.0028992,-0.058442,-0.029755,0.0053407,-0.017243,0.12375,-0.011444,0.024262
0.0068666,-0.027314,0.0013733,-0.045319,0.030365,0.054475,-0.17502,-0.069123
0.031586,-0.082246,0.046235,0.046845,0.03769,-0.0013733,-0.25589,-0.098116
0.0047303,-0.08072,0.076753,-0.1735,0.013886,0.022431,0.059358,-0.053254
0.030976,-0.21469,0.046845,-0.020905,0.032807,0.095979,0.11063,-0.013581
0.085603,-0.22171,-0.01236,-0.020294,0.030365,0.11093,0.064546,-0.0032044
0.039826,-0.094148,-0.0090028,-0.042267,0.079194,0.041047,0.049897,-0.0795
0.070039,-0.048981,-0.069429,-0.22416,-0.018769,0.10361,0.2031,-0.056916
0.0010681,0.025483,-0.083467,-0.12924,-0.121,0.3624,0.41886,0.0038148
-0.089876,0.046235,-0.11246,0.020905,-0.16434,0.34226,0.46708,0.0065614
-0.043793,-0.011749,-0.14328,0.11978,0.049897,-0.052338,0.26932,0.081331
-0.015412,-0.03006,-0.14115,-0.14969,0.24369,0.29618,-0.5034,0.082551
-0.055695,-0.043793,-0.10758,-0.24918,0.13687,0.091096,-0.96269,-0.032502
-0.099336,-0.058747,-0.098726,0.053864,0.0077821,-1.1144,-0.47745,-0.0035096
-0.10056,-0.018158,-0.12894,-0.12314,0.041047,-1.563,-0.38773,0.059663
-0.083772,0.061799,-0.10208,-0.10697,-0.010224,-0.55009,-0.053864,0.094759
-0.029145,0.083162,-0.05417,-0.14755,0.052949,0.33982,0.29191,0.074617
0.039521,0.0035096,-0.028229,-0.15763,-0.025177,0.63493,0.27329,0.047456
0.016632,-0.017853,0.012665,-0.16739,-0.11582,0.31693,0.29038,-0.015106
-0.015717,-0.025788,0.028534,-0.11063,-0.09781,0.34501,0.29221,-0.052644
0.04593,-0.1854,0.051118,0.35203,-0.082856,0.33524,0.023957,-0.0083925
-0.056001,-0.053559,0.019379,-0.29831,0.095369,-0.067597,-0.20676,-0.045319
-0.06363,-0.037385,0.0053407,0.032502,0.10147,-0.053864,0.031891,-0.044404
0.015717,-0.095369,0.010529,-0.010529,0.11185,0.14176,0.2327,0.015717
0.037079,-0.08072,-0.078889,-0.060883,0.082551,0.064546,0.2034,-0.055695
-0.00076295,-0.098116,-0.086519,-0.069429,-0.023346,0.065766,0.16007,-0.12375
-0.043183,-0.049897,-0.1387,-0.17197,-0.084688,0.050507,-0.077058,-0.057527
-0.10849,0.017548,-0.16281,-0.17777,-0.08072,0.0032044,-0.64042,-0.077974
-0.12741,0.048066,-0.13748,-0.075837,-0.097505,0.08072,-0.40208,-0.0056458
-0.096284,0.033112,-0.10513,-0.040131,-0.089876,0.17044,0.24796,0.13626
-0.051118,0.026398,-0.10697,-0.038911,-0.11093,0.262,0.20188,0.13626
-0.10361,0.09781,-0.091096,-0.013581,-0.057527,-0.36423,0.08011,0.11307
-0.083162,-0.012665,-0.035554,0.20829,0.38682,-0.62852,0.10239,0.15549
0.027619,-0.093843,-0.062715,-0.066377,0.47929,0.34836,0.11276,0.18296
-0.050813,0.044709,-0.039216,-0.36149,-0.029755,0.34806,0.11429,0.066377
-0.04654,-0.033417,0.02182,-0.27146,-0.1265,-0.21897,0.084077,-0.0022889
-0.0068666,-0.061799,0.0047303,-0.08896,-0.056001,0.026093,0.14939,0.058137
0.10269,-0.1268,0.04593,0.005951,-0.016632,0.0071717,0.044404,-0.045624
0.12284,-0.17899,0.0041199,-0.027314,-0.061494,0.01236,-0.21897,-0.083467
0.10086,-0.16892,0.028534,0.019684,-0.040742,0.039521,-0.31418,-0.12039
0.0065614,-0.077974,-0.010224,0.042573,-0.04654,0.14359,0.025788,-0.16007
-0.0053407,-0.11185,-0.041047,-0.12894,-0.13718,0.35264,0.18631,-0.066987
-0.027314,-0.13199,-0.096284,-0.41337,-0.02121,0.16342,0.11093,-0.061799
-0.049592,-0.067903,-0.11307,0.053254,0.0047303,0.066377,0.050202,-0.012055
-0.083467,0.081331,-0.17319,-0.2211,0.039521,-0.082246,0.0016785,0.047761
-0.12558,0.12222,-0.16739,0.27573,0.32486,-0.48997,-0.11856,0.014801
-0.1677,0.12528,-0.13504,-0.27573,0.29587,-0.68681,-0.12863,0.058442
-0.16068,0.084688,-0.12467,-0.11734,-0.054475,-0.24887,0.059052,0.093538
-0.12528,0.086213,-0.18997,-0.12589,-0.099031,0.25284,0.11887,0.10422
-0.083467,0.091402,-0.075837,-0.046845,-0.30137,0.20035,0.061799,0.14084
-0.0086976,-0.05478,-0.013886,-0.039216,-0.28672,0.13687,0.092012,0.15335
0.049287,-0.16342,0.088655,-0.12955,0.055695,0.10513,0.075837,0.031891
0.092927,-0.20676,0.027314,-0.087739,0.15396,0.098421,0.053559,-0.054475
0.06302,-0.20676,0.019989,-0.095369,-0.0065614,0.11154,0.048981,-0.077058
0.024262,-0.073701,0.015412,-0.0041199,-0.012665,0.080415,0.048066,0.0090028
-0.0035096,-0.052338,0.0062562,0.049287,0.057221,0.034333,-0.015717,0.031586
-0.0010681,-0.084688,-0.0028992,-0.049592,0.16709,-0.050507,-0.16007,0.034333
0.081941,-0.08957,-0.052644,-0.10758,0.13169,-0.072175,-0.056001,0.012055
0.08072,-0.038911,-0.049897,0.0206,0.027924,-0.048981,-0.039826,-0.084382
0.012665,-0.02182,-0.077974,-0.082551,-0.0090028,-0.039521,-0.039216,-0.12985
-0.051728,0.08011,-0.13779,-0.15183,0.0016785,0.048981,0.051728,-0.022736
-0.075837,0.019989,-0.15305,-0.047456,0.026093,0.035554,0.038911,-0.0010681
-0.084993,0.037079,-0.16922,-0.11246,-0.011444,0.012665,0.032807,0.051118
-0.084993,0.06424,-0.11978,-0.13901,0.017548,0.0071717,0.041657,0.065461
-0.103,0.035859,-0.10056,-0.067597,-0.073091,0.10056,0.02182,-0.00045777
-0.11704,-0.0028992,-0.070344,-0.12924,-0.14267,0.2388,0.037995,-0.028534
-0.047761,-0.11795,-0.022736,-0.046235,-0.10513,0.13809,0.022126,0.027924
-0.014496,-0.16281,0.017853,-0.066377,-0.083162,0.038911,0.038911,0.030365
-0.083772,0.02182,-0.049287,-0.0035096,-0.069429,-0.028229,0.027008,-0.0096132
-0.041352,0.0032044,0.044404,0.07187,0.12772,-0.18509,0.01297,0.057832
0.054475,-0.12284,0.03006,-0.099336,0.41459,-0.2916,0.082856,0.08011
0.048981,-0.11093,0.019989,-0.26566,0.31266,-0.15,-0.052949,-0.048676
0.011139,-0.088655,0.0032044,-0.42649,-0.033112,0.073091,-0.28672,-0.072175
-0.0071717,-0.049592,-0.0383,-0.07248,-0.20005,0.014496,-0.091096,-0.00015259
-0.022431,-0.021515,-0.040742,0.49668,0.076143,-0.21073,-0.033112,-0.0047303
0.0086976,-0.05417,-0.066987,-0.15763,0.041352,0.03006,0.076753,0.0071717
-0.015412,-0.039826,-0.12375,-0.1915,-0.31418,0.44114,0.23362,-0.0056458
-0.074922,0.053254,-0.15488,-0.10971,-0.10636,0.36118,0.20706,0.02884
-0.13657,0.09659,-0.15,-0.011139,0.025177,0.38224,0.32609,0.041657
-0.12436,0.053559,-0.13504,-0.088655,0.11826,0.31907,0.43198,0.1207
-0.095979,0.039521,-0.11734,-0.14328,0.17929,-0.049592,0.11276,0.12497
-0.023651,-0.014496,-0.11765,0.032807,0.091402,-0.02884,-0.2855,0.062104
-0.00015259,-0.048066,-0.058747,-0.06302,-0.28977,-0.18387,-0.76799,0.024262
-0.035859,0.0019837,-0.05478,-0.27695,0.031586,-1.2529,-0.47929,-0.068208
-0.0010681,-0.042573,-0.010224,-0.17594,0.2327,-0.049897,-0.051728,-0.087434
0.037079,-0.093843,0.0083925,-0.023651,-0.2446,0.7042,0.10849,-0.025177
0.02121,-0.084688,0.047456,-0.00076295,-0.059052,-0.23026,0.077974,-0.01236
0.030976,-0.16098,0.052949,-0.020905,0.059358,-0.84825,-0.2327,-0.036469
0.050507,-0.15854,0.013275,0.095064,-0.016938,0.073701,0.016022,0.04715
0.040131,-0.10391,-0.0090028,-0.009308,0.090486,0.50828,0.15244,-0.014801
0.010529,-0.068208,-0.013886,-0.29618,0.1268,-0.018158,-0.034333,-0.1207
0.016938,-0.091707,-0.078584,-0.22873,0.055695,-0.53696,0.025483,-0.06302
0.016632,-0.032197,-0.11124,-0.050813,-0.061799,0.11704,0.17411,0.00076295
-0.011444,0.00045777,-0.12619,-0.040436,-0.052949,0.26902,0.051423,-0.051728
-0.05478,0.057832,-0.13687,0.047456,-0.023651,0.10575,0.072786,-0.0028992
-0.093233,0.092317,-0.16129,-0.11734,0.0047303,0.14389,0.080415,0.072175
-0.077058,0.0053407,-0.11276,-0.14694,0.10819,0.103,0.12039,0.11063
-0.055695,0.018158,-0.13138,-0.079194,0.033722,0.098726,0.20951,0.11582
-0.062715,0.063325,-0.11276,-0.072175,-0.042573,0.086519,0.10971,0.069429
-0.10788,0.051728,-0.055695,-0.030976,-0.034943,0.11063,-0.010834,0.027008
-0.089265,-0.026703,-0.018463,0.061189,-0.02884,0.07126,-0.030976,-0.0071717
-0.073396,-0.056001,0.0035096,-0.26963,-0.023346,0.011444,-0.043183,-0.084993
-0.035248,-0.1268,0.02182,-0.033722,-0.015106,0.048676,0.025788,-0.0080873
-0.058747,-0.073701,0.02182,0.027314,0.028229,0.005951,0.17533,0.061189
-0.070649,-0.016022,0.019989,-0.068818,0.032197,0.010529,0.23972,0.079194
0.031281,-0.12802,0.0383,-0.50095,0.049592,0.18784,0.37095,0.18906
0.12833,-0.15183,-0.022126,0.93004,0.075227,0.19333,0.022126,0.11673
0.092012,-0.11368,-0.018158,-0.23026,0.093538,0.015106,-0.7866,-0.10391
0.037995,-0.12558,-0.068818,-0.24552,-0.0096132,-0.28733,-0.61814,-0.1564
-0.052644,0.019379,-0.11154,-0.42557,-0.17227,-0.3209,-0.043793,-0.048371
-0.063935,0.02945,-0.14115,-0.24521,0.103,0.14115,0.18875,-0.014801
-0.068208,0.074006,-0.15793,0.044709,0.041047,0.16495,0.21103,0.040131
-0.081941,0.08011,-0.15518,-0.035554,-0.02884,0.08072,0.095979,0.019074
-0.077058,0.059663,-0.10086,-0.074617,0.11551,-0.050507,-0.047456,-0.010224
-0.1033,0.038605,-0.10086,-0.023651,0.11398,-0.16251,0.041047,-0.024872
-0.084382,-0.017548,-0.087434,-0.022126,-0.10941,-0.49912,0.052949,0.0013733
-0.099641,-0.039521,-0.028229,-0.077363,-0.04715,-0.18875,0.093538,0.079805
-0.087129,-0.08896,-0.005951,-0.041352,-0.049287,0.26627,0.049897,0.12314
-0.028534,-0.1384,0.0056458,-0.032807,-0.048371,0.40269,-0.17655,0.17227
0.092317,-0.14359,0.0099184,-0.22171,0.0016785,0.48112,-0.14755,0.1268
0.13321,-0.10178,0.030671,0.15213,-0.066987,0.060273,0.19638,-0.00045777
0.060273,-0.041962,0.014191,0.0053407,-0.048676,-0.16495,0.30411,-0.062715
0.067292,-0.016327,-0.0083925,0.12436,0.18204,-0.2388,0.25437,-0.033722
0.10819,-0.10269,-0.0044251,-0.11582,0.41611,-0.40635,-0.0096132,-0.089265
0.0077821,-0.06424,-0.057832,-0.19394,0.14572,-0.066377,-0.16556,-0.17258
-0.060883,0.013886,-0.036164,-0.2089,0.031586,0.09781,-0.28916,-0.15366
-0.0010681,-0.10788,-0.065766,-0.083772,-0.041047,0.13138,-0.18936,-0.075227
-0.057832,-0.025788,-0.18021,-0.061799,-0.18601,0.073396,-0.014191,-0.10727
-0.14176,0.077363,-0.16251,-0.16739,-0.29496,0.060273,0.051118,-0.070649
-0.17044,0.11276,-0.14542,-0.10239,-0.26261,0.062715,0.063935,0.023346
-0.092317,0.013275,-0.1323,0.078889,-0.025788,0.053559,0.065156,0.088045
-0.1268,-0.018463,-0.15976,-0.04715,0.16709,0.12467,0.11521,0.12314
-0.12741,0.025177,-0.058137,-0.26322,0.11246,0.21134,0.12802,0.16648
-0.034333,0.012055,-0.028229,-0.17319,-0.024567,0.033417,-0.04715,0.24369
0.039521,-0.07248,0.01236,-0.066987,-0.042573,-0.098116,-0.092012,0.11276
0.03769,-0.077668,0.019684,-0.11307,-0.032502,-0.35813,0.1564,0.02121
0.053864,-0.13657,0.037385,0.49882,-0.015717,-0.11429,0.15,0.015412
-0.036774,0.0010681,0.011444,-0.31235,0.053864,0.14511,-0.14633,-0.032502
-0.049897,-0.090791,0.0032044,-0.19547,0.017243,0.053559,-0.49119,-0.022126
0.034943,-0.086213,-0.0080873,-0.17929,0.15396,0.042267,-0.043183,0.047761
0.051118,-0.11551,-0.0028992,-0.11521,0.26078,0.014496,0.1912,-0.061799
-0.036774,-0.05539,-0.042573,0.024567,0.013886,0.0032044,0.10849,-0.12924
-0.057832,-0.070039,-0.07126,-0.0096132,-0.0074769,-0.047456,0.1146,-0.014191
-0.094453,-0.060883,-0.11856,0.011749,-0.010529,-0.027619,0.092317,0.011139
-0.044404,0.033417,-0.18173,-0.10513,0.0086976,0.15427,0.13718,0.068513
-0.023651,0.034028,-0.13993,-0.22507,-0.049897,0.31052,0.1442,-0.023041
-0.015106,0.04654,-0.14511,-0.16556,-0.21408,0.29404,0.070344,-0.04593
-0.081636,0.096284,-0.14084,-0.031586,-0.11521,0.22538,0.036164,0.031891
-0.037385,0.039826,-0.13962,-0.040131,0.043183,-0.010224,-0.21134,0.044099
0.023651,-0.06424,-0.042573,0.0096132,0.12863,-0.70817,-0.309,0.065766
0.099641,-0.064851,-0.0065614,-0.072175,0.10971,-1.0018,-0.078279,0.009308
0.061494,-0.13169,0.024262,-0.16464,0.012665,0.16129,0.065766,-0.052949
-0.024262,-0.062409,0.019989,-0.052338,-0.072786,0.32486,0.076753,-0.062715
-0.038605,-0.077363,0.042573,0.043793,-0.073091,0.15763,0.082551,0.0019837
0.058442,-0.1387,0.010529,-0.079805,0.071565,0.12955,0.10208,0.024262
-0.0083925,-0.066987,0.0038148,-0.17288,0.032197,0.075837,0.11673,-0.056611
-0.090181,-0.07187,-0.0080873,0.0047303,-0.066987,0.16739,0.099947,-0.063935
-0.018769,-0.10575,-0.029755,-0.18173,0.090486,0.17807,0.090181,0.076448
-0.026703,-0.087434,-0.084688,-0.50431,0.22049,0.13413,-0.11917,0.085298
-0.084993,0.0077821,-0.099641,0.53544,0.093233,0.13779,-0.20554,-0.02884
-0.12863,0.11032,-0.15152,0.02121,0.098116,-0.017853,-0.10788,0.015412
-0.065156,0.015412,-0.13169,-0.19669,-0.076143,-0.0035096,-0.026398,0.062409
-0.061494,0.057221,-0.14511,-0.084993,-0.51194,-0.29496,0.10208,0.033417
-0.092927,0.11582,-0.13077,-0.09659,-0.052644,0.13931,0.12222,0.10147
-0.092927,0.063325,-0.11032,-0.16983,0.023346,0.21592,0.13993,0.083772
-0.084077,0.066072,-0.070649,-0.1735,-0.17197,-0.25956,0.063325,-0.044404
-0.041962,-0.031586,-0.02182,-0.019379,0.2211,-0.82872,-0.11307,-0.0080873
-0.03769,-0.036164,-0.028534,0.02945,0.30716,-0.59342,-0.047761,0.05417
0.010834,-0.087434,-0.00076295,-0.26413,0.0074769,0.33677,0.079805,0.013275
0.0056458,-0.11856,0.035554,-0.068513,-0.11154,0.44541,-0.081331,-0.002594
-0.02945,-0.12558,0.026093,0.023957,-0.033112,0.19944,-0.14939,-0.0086976
0.042267,-0.19181,0.030976,-0.094453,0.12894,-0.015717,-0.10636,0.019684
0.070649,-0.20462,0.012055,-0.033722,0.12436,-0.059968,0.0050355,-0.026703
0.061189,-0.14694,-0.0083925,-0.060578,0.022736,0.13687,0.10208,-0.052033
0.029755,-0.042573,-0.062409,-0.099031,-0.0019837,0.092927,0.060578,-0.058747
0.034333,-0.042573,-0.069123,0.12406,-0.036469,0.064546,0.043183,-0.065766
0.011749,0.009308,-0.13901,-0.25315,-0.010224,0.046845,0.040131,-0.030976
-0.13962,0.12802,-0.11337,0.019379,-0.0080873,0.033112,0.030365,-0.00076295
-0.10819,0.062409,-0.17868,0.06424,-0.043183,0.051118,0.047456,0.11185
-0.056001,0.053864,-0.15579,-0.26169,0.13291,-0.024262,0.017243,0.15671
-0.059663,0.037385,-0.11429,-0.16281,0.052338,0.043183,-0.013275,0.024262
-0.05539,0.019074,-0.10086,-0.093233,-0.089876,0.08835,0.035859,0.0028992
-0.045319,-0.005951,-0.093538,-0.14542,-0.07187,0.0090028,0.02945,-0.0041199
0.0050355,-0.042267,-0.018158,-0.08835,-0.047761,-0.01297,0.051728,-0.037385
0.0041199,-0.01236,-0.025483,-0.06302,-0.015717,0.081025,0.14481,0.023651
0.016938,-0.070954,0.019379,-0.037385,0.046235,0.068818,0.14603,0.053864
-0.0053407,-0.082246,0.012055,-0.15671,-0.070039,0.044099,0.13291,-0.022736
-0.031281,-0.072786,0.0206,-0.039216,-0.12772,-0.026093,-0.093233,-0.081025
0.0077821,-0.16831,0.039826,0.14054,-0.011139,-0.068208,-0.46738,-0.039521
0.025483,-0.15061,-0.0074769,-0.21897,0.17533,-0.034333,-0.16983,0.0080873
0.018769,-0.13413,0.013275,0.017243,0.066377,-0.023957,0.0383,-0.01297
-0.040742,-0.077974,-0.06424,0.11337,-0.089876,0.24186,0.048981,-0.016327
-0.053254,-0.0016785,-0.1146,-0.24979,0.29709,0.0010681,0.041047,0.037995
-0.016327,-0.049897,-0.073091,-0.1561,0.28031,-0.58427,-0.053864,0.06363
-0.059663,0.017853,-0.1799,-0.089265,-0.017243,0.23362,0.11582,-0.028229
-0.091096,0.062104,-0.17929,-0.073701,-0.13931,0.32914,0.33707,-0.0044251
-0.10391,0.12161,-0.1445,-0.021515,-0.15457,0.25528,0.486,0.055085
-0.041047,-0.022431,-0.084993,0.013275,-0.17685,0.36667,0.31571,0.075532
-0.070649,0.031586,-0.12039,-0.38437,-0.18814,0.26963,0.15396,0.041657
-0.091402,0.051118,-0.044404,-0.065766,-0.054475,-0.19699,-0.35569,0.029755
0.053559,-0.14359,-0.010834,0.18418,0.20462,-0.96696,-1.1052,0.098421
-0.002594,0.012055,-0.01297,-0.10636,0.22263,-0.41733,-0.46464,-0.0010681
0.01297,-0.074922,0.022126,0.10636,-0.061799,0.095979,0.20584,-0.042878
0.042267,-0.10758,0.0383,-0.31907,0.18906,-0.1442,0.19974,0.013886
0.031891,-0.084382,0.040436,-0.0090028,0.19303,-0.46647,0.059968,-0.026703
0.017548,-0.062409,0.0019837,-0.19394,-0.13169,-0.072175,0.039521,-0.11307
0.027314,-0.091707,0.0032044,-0.035554,-0.2385,0.41917,0.081331,-0.086213
0.010834,-0.12406,-0.092927,-0.049592,-0.077058,0.22019,0.0077821,-0.059663
-0.0022889,-0.0028992,-0.14176,0.036774,0.17197,0.10361,0.02121,-0.039521
0.013581,-0.049897,-0.084688,-0.095674,0.15732,0.072175,-0.017548,-0.086824
-0.02121,-0.014496,-0.10941,-0.11582,0.088655,0.024872,-0.025177,-0.070039
-0.085908,0.017243,-0.12741,-0.11154,0.031281,0.11368,0.10819,-0.019684
-0.1268,0.051118,-0.12711,0.012055,-0.15854,0.37491,0.27665,0.088045
-0.18479,0.084077,-0.13382,-0.16098,-0.15732,0.29191,0.24033,0.15824
-0.15946,0.072175,-0.11765,-0.21195,-0.026398,0.21164,0.13077,0.16403
-0.12924,0.017243,-0.081331,-0.14603,0.017243,0.18906,-0.012665,0.13809
-0.10941,0.010529,-0.029145,-0.14054,0.042878,-0.29374,-0.26871,0.11551
-0.048981,-0.029755,-0.019074,-0.22538,0.065156,-1.1321,-0.19486,0.12161
0.0383,-0.12558,0.0206,0.38865,-0.0068666,-0.29465,-0.018463,0.053254
0.022736,-0.093843,0.031586,-0.24338,-0.054475,0.36423,0.10788,0.016632
-0.012055,-0.12253,0.031891,0.34287,-0.082856,0.17929,0.1442,-0.0083925
-0.034638,-0.093843,0.02945,-0.20218,0.066072,0.061494,0.17105,-0.0062562
0.0065614,-0.083772,-0.0099184,-0.37369,0.22263,0.15793,0.051728,0.00045777
0.071565,-0.14359,0.0019837,-0.023041,-0.063325,0.43687,-0.021515,0.036164
0.14694,-0.11002,-0.051118,-0.088655,-0.027619,-0.012665,-0.030976,-0.07187
0.10422,-0.041962,-0.08957,-0.033722,0.024872,-0.046235,0.15213,-0.099641
0.070039,-0.029755,-0.11612,-0.0062562,-0.014496,0.040742,0.24491,-0.10605
0.0086976,0.025483,-0.14298,0.065766,0.02182,-0.017243,-0.075532,-0.13535
-0.050507,0.034028,-0.14939,-0.037079,-0.0053407,0.011139,-0.15824,-0.085908
-0.078889,0.035554,-0.14939,-0.17655,0.0096132,-0.025177,-0.1268,-0.021515
-0.11917,0.023651,-0.11948,-0.21561,0.056001,-0.066987,-0.15274,-0.053864
-0.11765,0.031586,-0.10147,-0.17136,-0.050813,0.038911,-0.016327,-0.032807
-0.10208,0.050202,-0.0795,-0.121,-0.11032,0.061189,-0.2208,0.032807
-0.087129,-0.018158,-0.036469,-0.031586,-0.051423,0.043488,-0.439,0.10452
-0.048676,-0.042573,0.013275,-0.042878,0.041962,-0.042878,-0.17288,0.12039
-0.010834,-0.094453,-0.0053407,-0.050507,0.012055,0.18204,0.2388,0.06302
0.016938,-0.027619,0.0065614,-0.15549,-0.0019837,0.41093,0.30777,0.050507
-0.073701,-0.054475,0.059663,0.041962,-0.049592,0.48478,0.24186,0.035248
-0.036774,-0.16556,0.025483,0.22354,0.0206,0.10056,0.13382,0.050202
-0.042573,-0.07248,-0.019684,-0.17655,0.25986,-0.70176,-0.068818,0.079805
-0.035859,-0.014496,-0.024262,-0.07126,0.069429,-1.0372,-0.1564,0.046235
0.0090028,-0.10422,-0.074006,-0.16007,0.07248,-0.6508,-0.16587,-0.015106
-0.00015259,-0.080415,-0.10025,-0.084993,0.17075,-0.18235,0.11215,-0.063935
-0.023346,-0.011749,-0.15305,-0.20706,0.035248,0.68742,0.19913,-0.041962
-0.018463,0.044099,-0.16342,-0.11978,-0.11246,0.46708,0.0013733,0.051118
-0.023041,0.06424,-0.1564,-0.050813,-0.34562,-0.078584,-0.029755,0.023041
-0.039521,0.024262,-0.14054,-0.12711,0.053559,-0.049897,0.031281,-0.002594
-0.032502,0.043793,-0.0795,-0.018158,0.076448,0.0050355,0.084688,0.065766
-0.040436,0.044404,-0.097505,-0.030976,-0.11124,0.088655,0.11917,0.068513
-0.041962,-0.012055,-0.027924,-0.13748,0.022126,0.10971,0.13535,-0.016938
-0.0044251,-0.08072,-0.039216,-0.055085,-0.047761,0.12711,0.059358,-0.027619
0.028229,-0.11887,0.015717,-0.016938,-0.0068666,0.064851,-0.1857,0.036164
0.02182,-0.11276,0.026398,-0.059663,0.074311,0.05478,-0.22965,-0.016938
0.0086976,-0.14694,0.009308,-0.089876,0.076448,0.13535,0.02945,-0.083162
0.0086976,-0.16373,0.037995,-0.026398,0.011749,0.29221,0.034333,-0.047761
-0.019379,-0.076448,0.012665,-0.025483,-0.065156,0.16129,-0.0041199,0.024872
0.016022,-0.076753,-0.0035096,-0.087739,0.080415,-0.67094,0.023651,-0.0074769
-0.0074769,-0.056001,-0.044099,-0.097505,0.05539,-0.24613,0.056611,-0.06302
-0.013275,-0.016632,-0.08835,-0.012055,-0.039216,0.15915,0.040131,-0.002594
-0.013275,-0.0016785,-0.1091,-0.15274,0.03769,0.093233,0.13199,0.04593
-0.056001,0.041657,-0.13748,-0.087739,0.049287,0.059052,0.056306,-0.024872
-0.11368,0.052033,-0.15122,-0.055695,0.056306,0.023041,-0.0062562,0.0071717
-0.086824,0.025177,-0.13657,-0.025483,0.23453,-0.031586,0.048981,0.078279
-0.083467,0.056001,-0.14176,-0.1799,0.011444,0.034943,0.012055,0.10697
-0.081636,0.059663,-0.103,-0.21073,-0.12833,0.012665,-0.033112,0.062104
-0.028534,0.016022,-0.086519,-0.077058,-0.17472,0.11734,0.076143,0.047456
0.041047,-0.042267,-0.03006,-0.16403,-0.17563,0.22171,0.20554,0.057527
-0.023346,0.00015259,-0.014801,0.10361,-0.17594,0.17716,0.15518,0.016022
-0.08835,-0.029755,0.0086976,-0.37003,-0.041962,0.11307,0.15091,0.0080873
-0.066987,-0.092012,0.037995,0.14237,0.24491,0.07248,0.040131,0.10147
-0.05539,-0.053559,0.019379,0.30594,0.25925,0.0972,-0.44419,0.049897
-0.028229,-0.094148,0.019379,-0.061799,-0.089265,-0.52293,-0.47898,-0.08072
0.02121,-0.18082,0.028229,-0.12741,-0.099641,-0.78599,-0.046845,-0.12436
0.054475,-0.1735,-0.0068666,-0.35386,0.043793,0.10758,0.13077,-0.11734
-0.0022889,-0.070344,-0.063325,-0.26902,0.069429,0.33829,0.1268,-0.13535
-0.017548,-0.023957,-0.088655,-0.11673,0.17655,0.17716,0.059052,-0.094148
-0.014801,-0.0065614,-0.14084,0.10788,-0.012665,0.15702,0.049897,-0.0062562
-0.030365,0.0010681,-0.17197,-0.043183,-0.16495,-0.098116,0.028229,0.034333
-0.08072,0.090181,-0.1387,-0.069123,0.01297,-0.18235,-0.014496,0.051423
-0.10727,0.048066,-0.12497,0.02945,0.20554,-0.20401,0.025788,0.082856
-0.084077,-0.025788,-0.034333,0.0056458,0.068208,0.083467,0.18906,0.14939
-0.022736,-0.08072,-0.13382,-0.29313,-0.00015259,0.1976,0.22904,0.17227
-0.010224,-0.037995,-0.10422,0.14908,0.013886,0.13504,0.17472,0.069734
-0.032807,0.028229,-0.04593,-0.060273,0.015106,0.026093,-0.08835,-0.01236
-0.010529,-0.002594,0.010224,-0.24216,-0.04715,-0.13291,-0.53452,0.014801
-0.033417,-0.010224,0.0038148,-0.059663,-0.23362,0.052644,-0.1503,0.039521
0.033112,-0.17044,0.027314,-0.079194,0.067597,0.039216,0.011444,0.02884
0.067597,-0.15,0.015412,-0.059663,0.12161,0.053254,0.067903,0.0206
0.081941,-0.17227,0.032502,0.016938,0.073701,0.13199,0.10636,-0.081025
0.02182,-0.095674,-0.013886,-0.019074,0.057221,0.20462,0.1268,-0.11307
0.0013733,-0.05539,-0.025483,-0.15579,-0.12039,0.1854,0.064546,-0.099947
0.00045777,-0.019379,-0.076448,-0.061494,-0.23728,0.19425,0.061494,-0.044709
0.025788,0.022736,-0.098726,-0.016938,-0.08896,0.074922,-0.11765,-0.034333
-0.043793,0.099641,-0.14115,-0.054475,0.088045,-0.61906,-0.23087,-0.071565
-0.014801,0.0074769,-0.14145,-0.040436,0.19211,-1.0439,0.035248,-0.020294
-0.08011,0.053559,-0.15915,-0.20523,0.066682,0.06302,0.14389,-0.0041199
-0.05478,0.015106,-0.11337,-0.094759,-0.035554,0.27878,-0.033112,0.03006
-0.058137,-0.0083925,-0.15946,-0.043488,0.0041199,0.21225,0.1088,0.049897
-0.12314,0.047761,-0.086824,-0.081025,0.020905,0.25254,0.2208,-0.015412
-0.08957,-0.012055,-0.035554,0.064851,-0.087434,0.27481,0.27726,0.085603
-0.094148,-0.028229,-0.029755,-0.16709,-0.041352,0.1915,-0.14328,0.11917
-0.062104,-0.083772,0.014191,-0.26596,0.06363,0.062409,-0.41886,0.045624
-0.059052,-0.070649,0.043793,-0.14847,0.13321,0.38071,0.10697,0.077974
-0.045014,-0.099641,0.024262,-0.095674,-0.022431,0.35111,-0.098421,0.04715
-0.056001,-0.09659,0.022126,-0.016327,0.041352,-0.41184,-0.32303,-0.010224
-0.052644,-0.059968,-0.014496,-0.049592,0.1149,-0.62333,-0.020905,-0.04654
0.032807,-0.10361,0.0035096,-0.043488,0.04715,0.2678,0.30167,0.0038148
0.0028992,-0.070954,-0.030365,0.11582,-0.13993,-0.35294,0.1146,-0.024872
-0.029755,-0.052338,-0.076143,0.33921,-0.16281,-0.60441,0.057527,-0.0041199
0.020294,-0.072786,-0.095064,-0.10117,0.19364,-0.10605,0.06424,0.070344
-0.02884,0.042573,-0.15488,-0.70695,0.11398,0.095674,0.046235,0.027314
-0.092317,0.07126,-0.15488,-0.20584,-0.16464,0.42283,-0.020294,0.053559
-0.0068666,0.033112,-0.15518,0.002594,-0.13474,0.24582,0.074311,0.1326
-0.0074769,0.037995,-0.12863,0.14023,-0.0383,0.0010681,0.15885,0.056611
-0.040742,-0.026398,-0.081331,-0.089265,0.20371,-0.32486,-0.1445,-0.076143
-0.026398,0.002594,-0.099641,-0.14359,0.26078,-0.18235,-0.40787,0.010529
-0.019379,-0.0383,-0.017548,-0.074617,-0.0047303,0.33616,-0.16922,0.02945
-0.06302,-0.026398,-0.02182,-0.17411,-0.09781,0.30991,0.16495,-0.047456
-0.039216,-0.079805,0.041962,-0.075532,-0.11978,0.18021,0.23148,-0.015106
0.075532,-0.18631,-0.005951,0.045624,-0.103,0.12802,0.25956,0.032807
0.10361,-0.082246,-0.026703,-0.14939,-0.0050355,-0.12894,0.16922,-0.027619
0.081636,-0.024262,0.023957,-0.096284,0.017243,-0.42252,-0.11856,-0.09781
0.05417,-0.121,0.025483,0.040131,0.12711,-0.15671,-0.069734,-0.0074769
0.0099184,-0.11826,0.0080873,-0.094453,0.16007,0.22599,0.051118,-0.029755
-0.040742,-0.062409,-0.073396,-0.033417,0.013581,0.11582,0.084077,-0.053254
-0.12467,0.0071717,-0.052338,-0.044404,-0.01297,0.044404,0.06363,-0.055695
-0.15,-0.010834,-0.12894,0.0013733,-0.0013733,0.065766,0.038911,-0.017548
-0.14969,0.031586,-0.14298,-0.11337,0.034333,0.13291,-0.12161,0.0038148
-0.092317,0.0080873,-0.10849,-0.066682,0.043488,0.11582,-0.18051,-0.0065614
-0.056611,-0.038605,-0.11948,-0.1149,-0.024872,-0.1323,-0.065156,0.06363
-0.099031,0.050202,-0.12467,-0.12284,-0.067597,-0.097505,0.077668,0.054475
-0.072175,0.047456,-0.13626,-0.099641,-0.066072,0.03006,0.121,0.13199
-0.042878,-0.0068666,-0.051728,-0.077668,-0.066987,0.11398,0.103,0.11704
-0.057832,0.039521,-0.041657,-0.048981,-0.016938,0.26993,0.15396,0.081331
-0.042878,-0.0016785,-0.032502,0.009308,-0.068818,0.37461,0.15,0.13504
0.030976,-0.053559,0.023346,-0.020294,-0.17105,-0.13291,0.056001,0.11276
0.093843,-0.14359,0.048371,-0.11551,0.33707,-0.52384,-0.069429,0.0010681
0.1149,-0.16983,0.030976,-0.092317,0.31052,-0.027619,-0.23575,-0.051728
0.05539,-0.11154,0.017243,-0.11154,-0.20798,0.14939,-0.095369,-0.072786
0.067597,-0.11337,-0.011749,-0.17807,-0.10086,0.23575,0.28367,-0.018769
0.043488,-0.086824,-0.014801,0.15763,-0.12406,0.16587,0.15,-0.038605
-0.014801,-0.02182,-0.082246,-0.22293,0.088045,-0.21469,-0.091707,-0.15488
-0.056916,0.027314,-0.11032,-0.15549,0.16678,-0.31327,-0.084993,-0.048981
-0.1442,0.027314,-0.12253,0.065156,-0.047761,0.11551,0.0068666,-0.023651
-0.11368,0.027924,-0.14237,-0.041352,0.044404,-0.24308,-0.049592,0.052949
-0.11063,0.092622,-0.1619,-0.12528,0.20981,-0.33463,-0.20523,0.11215
-0.12161,0.063935,-0.15,-0.20279,0.063325,0.092317,-0.15366,-0.016938
-0.091402,0.0099184,-0.095979,-0.20432,-0.044404,0.053254,0.041962,-0.058747
-0.012665,-0.099641,-0.063935,0.47837,-0.092927,0.1619,0.14725,0.046845
-0.010529,-0.087739,-0.088045,-0.59312,-0.0044251,0.10147,0.099031,0.03006
-0.012055,-0.074311,-0.039826,-0.17014,-0.05478,0.093538,0.085298,0.013886
0.0032044,-0.016327,0.0065614,0.018769,-0.091402,0.08072,0.067597,0.02884
0.035554,-0.061799,0.039521,-0.024262,-0.023041,0.046845,0.085908,0.02182
0.053254,-0.072175,0.031586,-0.05478,-0.036469,0.06424,0.15427,-0.0074769
0.042267,-0.067903,0.026703,-0.017243,0.070039,0.086824,0.08835,-0.084077
-0.0090028,-0.078279,0.014801,-0.16556,0.019684,0.39933,-0.021515,-0.053559
0.002594,-0.10605,0.0099184,0.016022,-0.11307,0.34195,0.050202,0.045319
-0.023346,-0.090791,-0.043793,-0.049287,-0.077363,0.26658,0.073701,0.0016785
-0.050813,-0.031586,-0.1146,-0.12497,-0.090181,0.11917,-0.31296,0.0080873
-0.10971,0.039521,-0.11368,0.0050355,0.19577,-0.71,-0.54185,0.030976
-0.077058,0.022431,-0.13474,0.14176,0.59098,-1.1711,-0.27665,0.093843
-0.082856,0.016022,-0.13931,-0.28,0.014191,-0.67735,0.022736,0.086519
-0.043793,0.011444,-0.12985,-0.38071,-0.077363,0.31815,0.1915,0.048981
-0.045624,-0.0077821,-0.13657,-0.14145,-0.049897,0.44511,0.17227,0.035248
-0.047761,-0.0041199,-0.10666,-0.22293,-0.15732,0.18143,0.13993,0.037995
-0.051118,0.026093,-0.10086,-0.25193,-0.075837,0.15763,0.24277,0.08835
0.011139,-0.030365,-0.040742,0.61753,0.016632,0.12009,0.24887,0.099641
0.027924,-0.068513,-0.0038148,-0.099336,0.034028,0.092927,0.21256,0.0074769
0.017243,-0.103,0.022736,-0.16678,-0.01297,0.16159,0.19089,-0.061189
-0.023651,-0.040742,0.015412,-0.030365,0.060273,0.12314,-0.41062,-0.082246
-0.009308,-0.095979,0.033722,-0.22751,0.12802,-0.11032,-0.56229,-0.0074769
0.03769,-0.13565,0.057527,0.04654,0.10636,-0.11154,-0.02884,0.014191
0.027314,-0.088045,-0.016938,-0.0032044,0.048981,0.15488,0.088655,-0.089265
0.02121,-0.088655,-0.023651,-0.18143,-0.05478,0.24674,0.1146,-0.10391
0.013886,-0.066377,-0.05417,0.0050355,-0.34257,0.24949,0.12528,-0.054475
-0.050507,-0.016938,-0.086519,-0.090791,-0.13199,0.022126,0.083467,-0.090181
-0.054475,0.037385,-0.13138,-0.070954,0.14023,-0.46342,-0.0056458,-0.051728
-0.07126,0.0016785,-0.11948,-0.0080873,0.070344,-0.75883,-0.085298,-0.057221
-0.11612,0.04593,-0.11307,-0.30167,0.057832,0.12497,-0.0047303,-0.0010681
-0.043183,-0.025788,-0.15152,-0.23301,-0.018769,0.2739,0.13413,0.11978
-0.10941,0.035248,-0.13748,-0.036164,-0.077363,0.1622,0.10971,0.10452
-0.15152,0.076448,-0.10025,0.13565,0.0056458,0.11124,0.049592,0.13016
-0.13382,0.066072,-0.066682,-0.074311,0.034028,0.05539,0.080415,0.2034
-0.018463,0.00015259,-0.049897,-0.24033,0.061494,-0.025483,0.018769,0.14115
-0.018158,-0.01297,-0.033112,-0.06424,0.060273,0.038911,0.065156,0.10086
0.079805,-0.17655,0.0383,0.034028,0.033112,0.095064,0.12222,0.045624
0.063935,-0.16403,0.050507,0.042878,0.023041,0.0013733,0.11582,-0.059358
0.059052,-0.11337,0.015717,-0.28855,0.022126,-0.016938,0.15244,-0.098421
0.10208,-0.12192,-0.027924,-0.23239,0.041352,0.083162,0.11246,-0.082246
0.12375,-0.121,-0.010834,0.0099184,0.020905,0.15732,-0.15824,-0.10513
0.090486,-0.10697,-0.012055,0.023041,0.025788,0.070344,-0.4802,-0.16556
0.016938,-0.0068666,-0.093233,-0.060578,0.041657,-0.036164,-0.56352,-0.12863
-0.015412,-0.011749,-0.082246,-0.063325,0.052949,-0.034333,-0.069429,-0.014191
-0.081025,0.023346,-0.12711,-0.045624,-0.0096132,-0.15854,0.1265,0.019684
-0.15213,0.039826,-0.13748,-0.1799,0.02182,-0.51133,0.018769,0.015106
-0.14176,0.005951,-0.10605,0.051728,-0.052644,-0.039521,0.15122,0.052949
-0.12009,0.011444,-0.12741,-0.07248,-0.079805,0.1738,0.13504,0.048066
-0.092317,0.0032044,-0.11093,-0.26139,0.013886,0.047456,-0.026703,0.030365
-0.1973,0.09659,-0.1146,0.015106,-0.056611,0.12772,0.095369,0.15824
-0.22629,0.15244,-0.062104,-0.058747,0.0068666,0.035554,0.10819,0.21286
-0.13962,0.03769,-0.031586,-0.20554,0.10544,-0.01297,0.065766,0.24887
-0.052033,-0.078584,0.026398,0.049592,-0.049897,0.10391,0.11765,0.17655
0.034333,-0.13443,0.020294,0.030976,0.0053407,0.051423,0.068513,0.12284
0.016022,-0.068208,-0.0019837,-0.18967,0.03769,0.0068666,0.042267,-0.02945
0.074311,-0.15396,0.022126,-0.045319,-0.081331,0.0019837,0.0041199,-0.12558
0.059968,-0.076448,-0.026703,-0.18021,-0.064546,0.12314,0.06302,-0.11704
0.027924,-0.10544,0.018463,0.023041,0.033417,0.26078,0.17014,-0.1091
0.030976,-0.15274,0.002594,0.13321,0.029145,0.49363,0.11307,-0.021515
0.059052,-0.12161,-0.063935,-0.033722,0.16281,0.23117,-0.03769,-0.038605
0.013581,-0.052033,-0.087129,-0.22995,0.25101,-0.64378,-0.068208,-0.077363
-0.0206,-0.030671,-0.13169,-0.23392,-0.10025,-0.34073,-0.19333,-0.067292
-0.066072,-0.009308,-0.16312,-0.18021,-0.16037,-0.084382,-0.23178,-0.047761
-0.01236,-0.005951,-0.14267,-0.0086976,0.042267,-0.44633,-0.038605,0.023041
0.0035096,0.043793,-0.13352,0.087739,0.10239,-0.15885,0.002594,0.02945
-0.00045777,0.054475,-0.12131,-0.0065614,0.044404,0.24857,0.041047,-0.038605
0.023957,-0.023346,-0.103,-0.14694,-0.069734,0.15335,0.049897,-0.052033
0.015106,0.0035096,-0.083162,-0.14542,-0.074006,0.12558,0.041352,-0.019684
-0.019074,-0.027314,0.0038148,0.070954,-0.018158,0.14694,0.022736,0.022736
-0.01297,-0.016022,0.026398,-0.13993,-0.067903,0.16739,0.064546,0.049287
-0.0050355,-0.05417,0.032807,-0.21286,-0.07126,0.078584,0.058442,0.016022
-0.0019837,-0.05539,0.019684,-0.087739,-0.011139,0.040436,0.0795,-0.027008
-0.082856,0.026703,0.018769,-0.0013733,0.0206,0.15,0.11063,-0.010224
-0.12802,0.0083925,0.011444,0.20554,0.090486,-0.044099,-0.0090028,0.018158
-0.081636,-0.09659,-0.002594,0.028534,0.29343,-0.20401,-0.077363,0.13199
-0.031891,-0.19852,-0.044404,-0.22538,0.07248,-0.063325,-0.079805,0.084382
-0.0028992,-0.22599,-0.055085,-0.3621,-0.036774,0.024262,0.0038148,0.012665
0.02121,-0.14786,-0.10727,-0.20066,0.086213,0.042573,-0.027008,-0.00076295
-0.0044251,-0.015412,-0.16129,-0.011139,-0.16068,0.082246,-0.017243,0.0206
-0.039216,0.094759,-0.15702,-0.035248,-0.12375,-0.052949,-0.073701,0.017548
-0.059052,0.075837,-0.14725,0.023041,-0.21256,0.16831,-0.0028992,-0.014191
-0.092317,0.13962,-0.14755,-0.0206,-0.15152,0.58671,0.059663,-0.015106
-0.14755,0.13657,-0.11032,-0.08072,-0.019074,0.43381,0.08011,0.077363
-0.049897,-0.014496,-0.040742,-0.062409,0.032807,-0.052949,0.26108,0.13535
-0.0047303,-0.011749,-0.044099,-0.29709,0.33433,-1.0451,0.19852,0.077668
-0.049287,-0.009308,-0.024262,-0.10086,0.53208,-0.79942,0.14023,-0.033722
-0.010224,-0.13748,0.062104,0.1033,0.037385,0.38529,-0.13443,-0.0028992
0.0019837,-0.13779,0.051728,0.0035096,-0.10208,0.14145,-0.53239,0.016022
-0.035248,-0.042878,0.0083925,-0.14115,0.031281,-0.86931,-0.26322,-0.054475
-0.012665,-0.056306,-0.0099184,-0.07248,-0.08072,-0.48112,-0.053254,0.026093
0.059968,-0.10086,-0.01297,-0.053559,0.0047303,0.59678,0.27146,0.0041199
0.086213,-0.1735,0.0016785,0.05478,-0.042573,0.40299,0.40543,-0.065156
0.013581,-0.077668,-0.055085,-0.057221,-0.04593,0.2739,0.16464,-0.089265
-0.0044251,-0.042573,-0.074922,-0.060273,0.0071717,0.2092,0.012055,-0.048676
-0.10819,0.08835,-0.15091,-0.14694,-0.031281,0.1912,-0.25803,-0.05478
-0.061494,0.031281,-0.17594,-0.13962,-0.027619,0.11704,-0.32456,-0.018769
-0.05478,0.0035096,-0.13443,-0.085908,-0.066987,-0.14206,-0.06302,0.023346
-0.075837,0.063935,-0.14145,-0.19913,-0.064851,0.024262,0.27359,-0.0206
-0.070649,0.032197,-0.12131,-0.10575,-0.055085,0.14481,0.043488,0.01297
-0.066987,0.018158,-0.11154,0.044709,-0.085298,0.047456,-0.30961,0.10788
-0.073396,0.030365,-0.04593,-0.11734,0.018769,-0.13474,-0.053254,0.092622
-0.046845,-0.031586,-0.016632,-0.0080873,0.20249,-0.30259,0.044099,0.096895
0.017243,-0.084382,0.0083925,0.090181,0.13931,-0.03769,0.14328,0.10391
0.035248,-0.067597,0.015412,-0.15183,-0.13169,0.25742,0.14145,0.063935
0.027314,-0.095369,0.067903,-0.46006,-0.064546,0.26596,0.16342,0.059663
0.037385,-0.19059,0.042267,0.25559,0.0056458,0.2504,0.19272,0.077974
-0.0041199,-0.168,-0.0083925,0.034638,0.10086,0.17594,0.12772,0.0096132
0.039521,-0.098116,-0.023651,-0.13291,0.12772,0.076448,0.14084,-0.01297
0.027619,-0.066377,-0.044709,-0.042573,0.026093,-0.015717,0.013886,-0.11734
0.033417,-0.086824,-0.052644,0.092317,0.0019837,-0.49088,-0.34836,-0.14206
-0.037079,-0.016327,-0.12253,-0.042878,-0.048371,-0.65293,-0.29404,-0.078279
-0.093843,0.043183,-0.15457,-0.52598,0.10544,0.14176,0.048981,-0.012055
-0.077668,0.027314,-0.10819,0.29374,0.07248,0.15763,0.027924,0.045624
-0.094453,0.053254,-0.15274,-0.22751,-0.11856,0.034333,0.050202,0.02182
-0.073701,0.056611,-0.13321,-0.093233,-0.12192,0.096895,0.14694,0.016938
-0.061189,0.052033,-0.12436,-0.1677,0.045624,0.10056,0.15335,0.057527
-0.060883,0.017853,-0.084993,-0.22782,0.0071717,0.11704,0.16526,0.077668
-0.015717,-0.0022889,-0.077974,-0.11765,-0.11612,0.19547,0.21897,0.082551
0.027314,-0.092317,0.0096132,0.022126,-0.10391,0.13138,0.098116,0.046235
0.046235,-0.095369,0.011444,-0.0062562,0.013581,0.056306,-0.17716,-0.082246
-0.02121,-0.088655,0.027924,-0.032807,0.089265,0.033417,-0.3978,-0.08835
0.0013733,-0.11948,0.032502,-0.14176,0.069123,-0.090486,-0.40208,-0.040436
0.046235,-0.11063,0.024872,0.026703,0.045014,-0.38437,-0.043183,0.010529
-0.0071717,-0.058747,0.014496,-0.070649,0.096895,-0.30747,0.21958,-0.061189
-0.022736,-0.079805,0.016327,0.014496,0.078584,0.13809,0.31418,-0.025177
-0.05478,-0.0038148,-0.034333,-0.051118,0.023651,0.11124,0.12711,0.04715
-0.096895,0.0016785,-0.092012,-0.074922,-0.0090028,0.099031,0.07126,0.005951
-0.088045,0.048066,-0.15488,-0.13687,-0.048676,0.12345,0.080415,0.053864
-0.084382,0.032502,-0.14267,-0.069123,-0.043488,0.046235,-0.28763,0.033722
-0.10605,0.091402,-0.15793,-0.16464,-0.032807,-0.026398,-0.44419,-0.040742
-0.065156,0.016632,-0.15274,-0.05478,0.011749,0.028229,0.12253,0.024262
-0.029755,-0.023346,-0.084688,-0.054475,0.2089,0.10452,0.25956,0.053559
-0.1146,0.038605,-0.11704,-0.12131,0.013275,0.31815,0.08957,0.0206
-0.026703,-0.082856,-0.047761,-0.11856,-0.079805,-0.2031,-0.067597,0.099641
0.039826,-0.13779,-0.0077821,-0.11948,0.10178,-0.69627,-0.11765,0.07126
0.01297,-0.068208,-0.034638,-0.040436,0.015412,-0.014801,-0.021515,-0.022736
0.011749,-0.066682,-0.0080873,0.045319,-0.06302,0.20554,0.10666,0.027008
0.018769,-0.047761,0.029755,-0.021515,0.0096132,0.36393,0.017853,0.091402
0.027619,-0.11063,0.042267,-0.13565,-0.086824,0.38773,0.036164,0.067292
0.044099,-0.090791,-0.016938,-0.23575,-0.067292,0.12924,0.072175,0.017243
0.043183,-0.10666,0.0206,0.13504,0.009308,-0.029755,0.10697,0.002594
-0.02945,-0.090486,0.024872,0.069429,-0.039216,-0.17624,0.103,-0.025483
-0.024262,-0.041657,-0.089265,-0.31449,0.12772,-0.58976,0.002594,-0.027008
0.038911,-0.010529,-0.10697,-0.095369,0.18235,-0.2739,-0.013275,-0.0056458
-0.041962,0.056611,-0.13779,-0.06363,0.0071717,0.22324,0.085603,-0.068818
-0.14328,0.074617,-0.15457,0.084077,-0.040436,0.29618,0.068208,-0.081941
-0.086213,0.021515,-0.13779,-0.16464,0.087434,0.10147,-0.046845,0.015106
0.0010681,-0.036164,-0.13321,0.20188,0.068513,0.0068666,-0.057527,0.057832
-0.025788,0.031281,-0.1268,-0.41032,0.11948,-0.54093,-0.087434,-0.018769
-0.083162,0.061494,-0.11032,-0.20676,0.011749,-0.24063,-0.012055,-0.039521
-0.094453,0.010529,-0.061189,-0.012055,-0.077058,0.22873,-0.12528,0.0010681
-0.0053407,-0.045624,-0.034638,0.18143,0.027008,0.072175,-0.29526,0.042267
0.040131,-0.022431,-0.0047303,-0.12314,-0.19272,0.31632,-0.0086976,0.077974
-0.0047303,-0.041962,0.04654,-0.28946,-0.24155,0.49973,0.19699,0.031281
0.048066,-0.16403,0.040742,0.012665,0.039521,0.27085,0.21195,0.013886
0.029755,-0.13748,0.018463,-0.14389,-0.043488,0.31266,0.17075,-0.017548
-0.0062562,-0.10056,-0.0016785,-0.079194,-0.027314,0.22141,0.10971,-0.039521
-0.040742,-0.13779,0.0096132,0.12833,-0.085908,-0.15885,-0.074922,-0.0022889
-0.020905,-0.18662,-0.024872,-0.1146,0.08835,-1.1806,0.01297,0.0086976
-0.044709,-0.059358,-0.066987,-0.12863,0.48417,-1.0335,-0.081025,-0.053864
-0.034638,-0.009308,-0.10513,-0.0795,0.17441,0.19608,-0.29191,-0.065156
-0.08835,0.044404,-0.1384,-0.11582,-0.10147,0.30961,-0.13931,-0.035554
-0.11032,0.058442,-0.13993,-0.033112,-0.046845,0.24002,0.10544,0.052949
-0.10056,0.092622,-0.1326,-0.16403,-0.067903,0.23239,0.19089,0.13199
-0.095369,0.057527,-0.1207,-0.14145,-0.062715,0.20157,0.20737,0.13474
-0.053559,0.019074,-0.11093,0.071565,-0.066682,0.16098,0.2153,0.15213
-0.059663,0.048066,-0.10666,-0.17258,0.010529,0.099336,0.12711,0.090486
-0.042573,-0.0086976,-0.052338,-0.098421,-0.055695,0.095979,-0.098116,-0.0096132
-0.04715,-0.016632,-0.081025,-0.033417,0.060273,-0.14664,-0.66667,-0.064851
0.048981,-0.10391,0.017243,-0.026398,0.017853,-0.041047,-0.22019,0.0080873
0.053864,-0.10422,0.066987,-0.027619,-0.020294,0.081025,0.28183,0.015106
-0.0068666,-0.083772,0.059663,-0.07126,-0.019074,0.073701,0.13809,-0.053864
0.00045777,-0.081331,0.0035096,-0.22232,0.0038148,-0.0032044,0.062104,-0.022431
0.012055,-0.088655,0.00015259,0.43473,-0.049287,0.039521,0.042267,0.0041199
0.094759,-0.21256,-0.0019837,0.059358,-0.016632,0.13718,0.019074,-0.019684
0.074006,-0.10666,-0.060578,-0.56504,0.19913,0.036469,0.014191,-0.10025
0.016632,-0.036164,-0.08011,-0.042878,0.11612,0.29557,0.10971,-0.098116
-0.011139,-0.010529,-0.12039,-0.15152,-0.024262,0.37491,0.17838,-0.02121
-0.049287,0.058442,-0.15183,-0.2034,-0.022736,-0.19211,0.061799,-0.04715
-0.072786,0.098726,-0.16281,-0.046845,-0.12711,-0.71946,0.1326,-0.0056458
-0.055085,0.051728,-0.12436,-0.012665,-0.11215,-0.36027,0.096895,0.036774
-0.090791,-0.011749,-0.070649,-0.076448,0.053559,-0.032197,-0.43473,0.0047303
-0.16831,0.013581,-0.12497,-0.11276,0.22446,-0.38346,-0.58,-0.0028992
-0.075837,-0.044099,-0.10605,0.0099184,0.024262,0.14511,0.047456,0.16434
-0.052644,0.0032044,-0.05478,-0.20188,-0.048676,0.31998,0.22477,0.13321
-0.081636,0.04654,-0.014496,-0.19303,-0.09781,0.28305,0.13779,0.022736
-0.023651,-0.092317,0.053559,0.24491,-0.047761,0.16434,0.11917,0.056306
0.0035096,-0.10269,0.011444,-0.19364,0.1912,-0.027314,0.069123,0.056611
0.052338,-0.14481,0.030976,-0.079194,0.080415,0.010529,0.037995,0.017243
0.062104,-0.059663,-0.019684,-0.046845,-0.021515,0.0062562,0.015412,-0.011444
0.050202,-0.042267,-0.01297,-0.062715,0.045624,-0.0013733,0.021515,-0.01236
0.051423,-0.10819,-0.0044251,-0.098726,0.051728,0.049592,0.031891,-0.018158
0.041657,-0.13687,-0.048981,-0.056611,-0.19974,0.17746,0.14298,-0.015412
-0.014801,-0.049897,-0.092012,-0.057527,-0.18479,0.16342,0.22568,-0.04593
-0.061799,-0.014496,-0.10117,0.035554,0.029755,0.11978,0.22171,-0.060578
-0.095064,0.022736,-0.14939,-0.072786,0.074311,0.085298,0.11765,-0.059052
-0.13474,0.096284,-0.15854,-0.30991,-0.040436,0.046845,-0.47288,-0.060883
-0.10208,0.066682,-0.16678,-0.10361,-0.17472,-0.07248,-0.49699,0.041352
-0.11215,0.06363,-0.11551,-0.032502,-0.1091,-0.36515,-0.12039,0.083772
-0.12406,0.033722,-0.10819,0.13565,-0.010834,-0.42039,0.014191,0.062104
-0.12558,0.055085,-0.068818,-0.009308,0.084382,-0.092012,0.27665,0.090486
0.034028,-0.11093,-0.0038148,-0.30106,0.48325,-0.24308,0.32975,0.17838
0.082856,-0.17777,0.023957,-0.66697,0.28611,-0.12467,-0.019379,0.16464
0.04715,-0.10575,0.055695,0.45853,0.13413,0.092927,-0.14939,-0.019684
0.0016785,-0.072786,0.023651,0.053864,-0.035248,0.22049,-0.009308,-0.10239
0.037385,-0.16678,0.050813,-0.082551,-0.12833,0.22751,-0.19516,-0.098421
0.030365,-0.12467,-0.024262,0.047456,0.0077821,0.1091,-0.053559,-0.092317
-0.012055,-0.040131,-0.0206,-0.25559,0.039521,0.065766,0.14298,-0.083467
0.033112,-0.068513,-0.032807,-0.052338,0.0074769,0.18173,0.11612,0.026093
0.028229,-0.040436,-0.073091,-0.032807,-0.079805,0.25193,-0.049287,-0.014801
0.0077821,-0.058442,-0.11154,-0.056611,-0.10086,0.18723,-0.018463,-0.065766
-0.05539,0.033722,-0.15366,-0.18204,0.08072,-0.50645,-0.009308,-0.071565
-0.05478,0.066377,-0.13077,-0.045624,0.047761,-0.25345,0.12772,0.02945
-0.055695,0.10971,-0.15702,-0.16739,-0.047456,0.15366,0.13596,0.088655
-0.075227,0.10819,-0.13535,-0.13962,-0.055695,0.041657,0.031891,0.067597
-0.072175,0.036164,-0.11215,-0.06424,-0.10117,0.036774,-0.010224,0.08072
-0.050507,-0.0383,-0.069429,-0.0041199,-0.084688,-0.15366,-0.10513,0.049287
-0.050507,-0.031586,-0.037995,-0.13199,-0.14206,-0.030976,-0.12131,0.016022
-0.036469,-0.076448,-0.0206,-0.057527,-0.10361,0.48203,0.023957,0.011139
-0.034943,-0.052338,0.029755,-0.090486,0.070039,0.39261,0.1503,-0.0206
-0.023041,-0.092317,0.049897,0.13016,0.043793,0.094453,0.19974,0.0038148
-0.027008,-0.098116,0.032197,-0.29129,-0.043488,-0.058137,0.10697,0.044404
0.0038148,-0.086519,0.016632,-0.048981,0.10147,-0.3447,-0.22049,0.033417
0.0032044,-0.077974,-0.0022889,0.087434,0.16129,-0.8513,-0.23758,-0.039216
0.033722,-0.20035,-0.017853,0.083162,0.02945,0.20249,0.14328,-0.061189
-0.0028992,-0.12802,-0.039216,-0.25986,0.053864,0.71336,0.2266,-0.011139
-0.051118,-0.0062562,-0.068818,-0.080415,0.11093,0.58976,0.10452,0.023041
-0.043488,0.0056458,-0.13046,-0.067292,0.077668,0.21714,-0.12131,-0.0062562
-0.06302,0.00045777,-0.15854,-0.068208,0.14908,-0.90227,-0.33555,-0.037385
-0.091707,0.0044251,-0.15396,-0.10239,0.012665,-0.90959,-0.29282,-0.031891
-0.081941,0.042267,-0.15152,-0.036774,-0.011444,-0.83421,-0.11551,0.015412
-0.095674,0.077974,-0.11887,-0.13718,-0.00076295,0.18814,0.21286,0.11307
-0.103,0.11398,-0.13626,-0.091402,-0.068513,0.49882,0.26383,0.12467
-0.049897,0.019074,-0.073091,-0.20676,-0.075227,0.23514,0.16556,0.082551
-0.0035096,-0.063325,-0.025788,-0.11124,-0.074922,0.24247,0.1561,0.074006
-0.014496,-0.018463,-0.0044251,0.04654,-0.099947,0.18387,0.14298,0.08072
0.034028,-0.11154,0.036164,-0.0086976,-0.042573,0.1799,0.034333,0.075837
0.10147,-0.11398,0.027924,-0.22599,-0.047761,0.1799,-0.14572,0.0032044
0.094759,-0.11948,0.023346,-0.014801,-0.078279,0.087129,-0.28214,-0.030365
0.094148,-0.11978,0.028534,0.068818,0.0028992,0.048981,-0.14633,-0.063935
0.018158,-0.08072,-0.01236,-0.30228,0.11185,0.12894,0.092927,-0.15183
0.012055,-0.077974,-0.018769,0.047456,0.23819,-0.34501,0.092012,-0.11795
-0.036469,-0.034333,-0.059052,0.14755,0.17807,-0.37613,0.0028992,-0.10544
-0.10513,-0.002594,-0.076143,-0.14328,-0.044404,0.030976,0.014801,-0.14206
-0.11246,-0.0053407,-0.14115,-0.21683,0.016022,0.074617,0.052033,-0.022431
-0.060578,-0.021515,-0.15854,-0.24826,0.051728,0.054475,0.081941,0.08011
-0.065766,0.032502,-0.14878,-0.096895,-0.01236,0.18936,0.12711,0.10086
-0.10056,0.082246,-0.14359,-0.09659,-0.089876,0.56565,0.22477,0.103
-0.084993,0.035859,-0.14359,-0.023346,-0.13718,0.3801,0.11795,0.04715
-0.091707,0.039826,-0.10269,-0.0206,-0.39139,0.068513,-0.18173,0.027619
0.0053407,-0.06424,-0.029755,0.13443,-0.052644,-0.12436,-0.32547,0.051423
-0.031281,0.028534,-0.056001,-0.16617,0.51347,-0.50278,-0.045319,-0.0090028
-0.075227,-0.02182,0.0080873,-0.28397,0.17899,-0.89708,0.093843,0.0010681
-0.075532,-0.044709,0.058442,-0.1265,-0.26658,-0.14786,0.22293,0.041962
-0.0096132,-0.15488,0.040742,0.077974,-0.062715,0.38651,0.16861,0.055695
-0.011139,-0.099336,0.014496,-0.068513,0.059358,0.11337,-0.058747,0.027314
0.029755,-0.13901,0.028534,-0.045319,0.032197,0.09659,-0.24308,-0.0010681
0.11795,-0.22293,0.024872,-0.005951,-0.029755,0.12863,-0.048371,0.043488
0.041352,-0.1619,-0.04654,0.00045777,0.055695,0.027314,0.051423,-0.0028992
-0.023651,-0.042573,-0.14145,-0.049287,0.18265,-0.093233,-0.0056458,0.017548
-0.043183,0.051118,-0.11917,-0.14481,0.16281,0.024262,0.088045,0.065461
-0.0383,0.058747,-0.11154,-0.053559,0.031891,0.092317,0.11307,-0.018463
-0.040742,0.0077821,-0.1387,-0.034638,-0.051118,0.032502,-0.067903,-0.062715
-0.085603,0.026398,-0.15183,-0.074922,-0.025483,-0.045014,-0.2208,-0.10452
-0.035554,-0.0019837,-0.121,-0.20981,-0.10727,0.030365,-0.033112,0.027314
-0.033112,0.016327,-0.10086,-0.21164,-0.13626,0.040131,0.038911,0.036774
-0.059052,0.034638,-0.095369,-0.17197,-0.014191,0.030976,0.036164,-0.0080873
-0.048676,0.038605,-0.056916,-0.05478,-0.037079,0.065766,0.11704,0.060578
-0.038605,0.039216,-0.0096132,0.072175,-0.056611,0.036774,0.13413,0.085603
-0.060578,0.0010681,0.019989,0.061799,-0.031281,0.0050355,0.074311,0.0074769
-0.029145,-0.03006,0.015717,-0.21561,0.11704,0.005951,0.069123,0.013886
0.054475,-0.093843,-0.0035096,-0.10971,0.14237,0.014496,-0.015106,0.0096132
0.056001,-0.14054,0.028229,-0.093843,0.040131,0.011139,-0.28122,-0.081025
0.027619,-0.15183,0.04593,0.14145,0.091402,-0.0035096,-0.14267,-0.08957
0.0016785,-0.121,0.0013733,-0.17197,0.084382,-0.018769,0.10575,-0.047456
-0.018158,-0.095674,-0.037079,-0.22904,0.0013733,-0.0053407,0.056001,-0.035248
0.011139,-0.13046,-0.053864,0.04654,-0.215,0.011444,0.063325,0.048371
-0.0056458,-0.069429,-0.12467,-0.1738,-0.078889,-0.0056458,0.12375,0.083467
0.016022,-0.020294,-0.15518,0.15518,0.058442,-0.014801,0.11856,-0.0013733
-0.0050355,0.055695,-0.16678,-0.15549,0.051728,0.027008,0.12589,-0.01297
-0.097505,0.079194,-0.15702,-0.26505,-0.025788,0.095369,0.12436,0.009308
-0.14176,0.018463,-0.12924,-0.065461,0.0056458,0.016632,-0.12467,-0.0010681
-0.13748,0.027314,-0.1091,0.090181,0.024262,-0.015717,-0.23453,0.081636
