-0.059968,-0.050507,-0.11521,-0.055695,-0.059052,-0.0053407,0.0016785,-0.045014
-0.08072,-0.036164,-0.090486,-0.07248,-0.066072,-0.03006,0.013886,-0.032502
-0.10056,0.076753,-0.1326,-0.0795,-0.046845,-0.031281,-0.0028992,-0.018158
-0.10452,0.20218,-0.10025,-0.092622,-0.042878,-0.015717,-0.070039,0.023041
-0.041962,0.10178,-0.062409,-0.18601,-0.050813,-0.0086976,-0.099336,0.074311
-0.0041199,-0.016632,-0.055695,-0.091096,-0.079805,0.0032044,-0.030671,0.093538
0.0010681,-0.062409,-0.081331,-0.0053407,-0.059052,0.014496,0.096895,0.07187
-0.033722,0.0044251,-0.10117,-0.20157,0.07126,-0.037385,0.039826,0.04593
-0.024567,-0.066377,-0.027619,-0.036164,0.034028,0.037385,0.07126,0.045624
0.0041199,-0.076143,-0.016938,-0.016022,-0.02945,0.082551,0.12192,0.02884
-0.0010681,-0.026093,-0.063325,-0.076448,0.071565,0.0065614,-0.11032,0.022126
-0.016938,-0.040742,-0.041047,-0.079805,0.059968,0.018769,-0.085908,0.025483
-0.0044251,-0.10941,0.0062562,0.069123,-0.017243,0.040436,0.077668,0.027619
-0.023041,-0.092012,-0.034333,-0.24826,0.057527,0.0038148,0.1561,0.0086976
0.025177,-0.21073,0.012665,-0.02121,-0.00015259,0.02121,0.1912,0.037079
0.0038148,-0.24247,0.00015259,-0.0065614,0.0053407,-0.053254,-0.056611,0.022126
-0.022736,-0.056306,-0.095064,-0.051118,0.090181,-0.029145,-0.24369,-0.037385
-0.036469,0.026398,-0.10117,-0.064851,0.0383,0.084382,0.24491,-0.015106
-0.073091,0.090181,-0.070649,-0.046845,-0.019074,0.060578,0.002594,-0.030976
-0.11246,0.089876,-0.10269,-0.10117,0.0038148,-0.013275,-0.30045,-0.060578
-0.10208,0.093843,-0.12985,-0.11856,-0.039216,0.02121,-0.0080873,0.039521
-0.10941,0.098421,-0.13718,-0.12558,-0.059052,0.038911,0.14664,0.033722
-0.056611,0.0044251,-0.034638,-0.089265,-0.034638,-0.036469,-0.0044251,0.057221
-0.0206,-0.027924,-0.038605,-0.046235,-0.024567,-0.087739,0.034333,0.057221
-0.031281,0.11795,-0.084688,-0.05539,-0.028229,0.02121,-0.023346,-0.027008
-0.035554,-0.0068666,-0.036164,-0.077058,-0.036469,0.036164,0.016022,-0.030976
-0.028534,-0.093538,-0.023651,-0.048981,0.060273,0.013275,0.01297,0.0086976
0.027314,-0.17899,0.0080873,-0.068818,0.1265,0.069123,0.076448,0.069429
0.059968,-0.13413,-0.059968,-0.10697,0.066377,0.0795,0.31601,0.061189
0.11398,-0.16495,-0.029755,-0.055695,0.014191,0.01236,0.34226,0.010834
0.14023,-0.26658,0.092317,0.0047303,0.024872,-0.036164,0.14023,-0.09781
0.087739,-0.22232,0.036774,0.022736,0.074006,-0.070039,-0.72953,-0.21042
0.0074769,-0.023346,-0.14908,-0.084688,0.10361,-0.049897,-0.54368,-0.15824
-0.050813,0.055085,-0.15061,-0.10636,0.043488,-0.029145,0.037995,-0.051728
-0.056916,0.014191,-0.074617,-0.085603,-0.0053407,-0.013581,-0.34257,-0.016938
-0.068818,0.022126,-0.084688,-0.093538,-0.013581,0.043488,0.28367,0.070344
-0.10239,0.05417,-0.060883,-0.093233,-0.023651,0.040742,0.37522,0.040131
-0.11948,0.087129,-0.12528,-0.12039,-0.031281,-0.044404,0.0053407,0.074006
-0.12833,0.090486,-0.11917,-0.13474,-0.040742,-0.083467,-0.40604,0.10544
-0.13382,0.074006,-0.10056,-0.12924,-0.062104,0.041352,-0.13993,0.087434
-0.11704,0.040131,-0.062104,-0.096284,-0.076753,0.10147,0.43168,0.168
-0.10208,0.048371,-0.063325,-0.10788,-0.030976,0.060273,0.27512,0.16098
-0.076143,0.021515,-0.037995,-0.078889,0.01297,0.033112,0.068208,0.087434
-0.018463,-0.052644,-0.029755,-0.073396,0.011139,0.045624,0.0080873,0.042878
0.013886,-0.11368,0.0065614,-0.036774,-0.010224,0.10178,0.099641,-0.025177
0.078279,-0.19242,-0.0016785,0.0077821,0.0090028,0.069734,0.10025,-0.013275
0.071565,-0.22568,0.019989,0.041047,0.069123,-0.035248,0.039216,-0.086213
0.034028,-0.31052,-0.0013733,-0.00015259,0.094453,-0.02945,0.12772,-0.12131
0.016022,-0.20829,-0.063325,-0.085298,0.096895,-0.0071717,0.27451,-0.063935
0.0050355,-0.064851,-0.036774,-0.17136,0.055085,-0.014801,0.18173,-0.023651
0.017243,0.011749,-0.077058,-0.058137,0.018158,-0.031586,-0.63279,-0.056001
-0.0050355,0.1265,-0.1207,-0.1268,-0.0041199,-0.0077821,-0.60227,-0.031281
-0.039521,0.14389,-0.13626,-0.18112,-0.0074769,0.0044251,0.13931,0.03769
-0.043183,0.11917,-0.11276,-0.096284,-0.031281,-0.0071717,-0.0068666,0.017243
-0.063325,0.0053407,-0.078584,-0.056916,-0.046845,-0.018158,0.026703,0.013275
-0.085603,-0.037385,-0.074006,-0.061494,-0.025177,-0.035859,0.048981,0.025177
-0.094453,-0.0083925,-0.078279,-0.121,-0.0013733,-0.02121,0.098726,0.074311
-0.089265,0.066072,-0.06424,-0.18753,-0.025788,0.032502,0.18509,0.08957
-0.064851,-0.00015259,-0.062715,-0.12161,-0.052033,-0.029755,0.15427,0.1503
-0.018463,-0.056916,-0.059358,0.19272,-0.018463,-0.065766,0.0795,0.13413
0.016632,-0.078584,-0.01236,-0.22171,0.019684,0.010834,-0.011444,0.022126
0.049287,-0.12833,0.022736,-0.009308,-0.0047303,0.17319,0.036164,-0.056001
0.043488,-0.13138,-0.022431,-0.025177,0.016022,0.39109,0.048066,-0.11307
0.012055,-0.12802,0.011444,-0.034943,0.07187,0.016327,-0.06302,-0.10117
0.024872,-0.10422,-0.031586,0.019989,0.051728,-0.19577,-0.077363,-0.072175
0.02121,-0.088045,-0.049287,-0.087129,0.050507,-0.040436,-0.042573,-0.071565
-0.052033,-0.034943,-0.070954,-0.10727,0.016938,-0.016938,0.02884,-0.082856
-0.066682,-0.012665,-0.087129,-0.07248,0.02884,-0.019379,0.0028992,-0.036774
-0.065461,-0.0016785,-0.099336,-0.13535,0.043488,-0.039216,-0.019379,-0.01297
-0.08011,0.067292,-0.10758,-0.15488,0.015106,-0.033722,0.037079,0.055695
-0.083467,0.10391,-0.13626,-0.12284,0.014801,0.0013733,0.026703,0.072175
-0.081636,0.15244,-0.094759,-0.13077,-0.021515,-0.043183,-0.049592,0.08011
-0.081025,0.096284,-0.083162,-0.10758,-0.032502,-0.10941,-0.13321,0.079194
-0.066987,0.039826,-0.076143,-0.08957,-0.039521,0.0044251,-0.0096132,0.062409
-0.066072,-0.018769,-0.046845,-0.1033,-0.02945,0.052644,0.13291,0.092927
-0.015412,-0.20371,-0.02182,-0.084688,-0.029145,0.034333,0.085908,0.08072
0.0099184,-0.18692,0.018769,-0.018158,-0.036469,0.067597,0.23697,0.03769
0.059358,-0.15671,-0.023957,-0.002594,-0.0071717,0.065156,0.17563,0.0071717
0.06302,-0.10605,-0.020294,-0.017243,0.043488,-0.02884,-0.066987,-0.044404
0.032197,-0.077974,-0.052338,-0.019379,0.06302,-0.067292,-0.60441,-0.13199
0.037995,-0.10361,-0.022126,-0.016327,0.04593,0.038911,-0.074617,-0.098116
0.062104,-0.11643,-0.0062562,-0.024262,0.035554,0.04654,0.33463,-0.033722
0.0090028,-0.058442,-0.052644,-0.032502,0.067903,-0.067597,0.098421,-0.083162
-0.0096132,-0.019379,-0.046235,-0.15183,0.090486,-0.041962,-0.078889,-0.087739
-0.059968,0.013275,-0.059358,-0.20584,0.032197,0.036164,-0.26535,-0.038911
-0.064851,0.033722,-0.1149,0.099947,-0.085298,0.068818,0.14847,0.033417
-0.14755,0.10819,-0.1564,-0.21561,-0.067903,0.010834,0.074617,0.041352
-0.1503,0.10239,-0.15,-0.08072,-0.033417,0.022736,-0.10361,0.10575
-0.06302,0.023651,-0.066682,-0.17075,0.0099184,0.062715,0.036774,0.19089
-0.075227,0.021515,-0.070954,-0.14664,0.0010681,-0.012665,0.10178,0.1146
-0.070039,-0.033722,-0.042878,-0.103,-0.026703,0.0022889,0.069123,0.07187
-0.027619,-0.0047303,-0.050813,-0.068513,-0.0383,0.024262,0.10025,0.084077
0.0096132,-0.041657,-0.020294,0.027619,-0.036469,0.032807,0.095979,0.075837
0.009308,-0.11978,-0.0053407,-0.03006,-0.050507,0.040131,0.020294,0.033417
-0.0028992,-0.085603,-0.021515,-0.17197,-0.024872,0.018463,-0.064546,0.025177
-0.0019837,-0.052338,-0.039216,-0.11398,0.13931,0.044099,-0.052644,0.0053407
-0.013275,-0.067903,-0.066377,-0.06424,0.094453,0.093843,0.098726,-0.023346
0.0080873,-0.1268,-0.0035096,-0.016632,-0.017243,0.045624,0.048371,-0.066072
0.0041199,-0.15427,0.0019837,-0.00015259,0.041047,-0.0035096,-0.042573,-0.05539
-0.030671,-0.1503,-0.055085,0.012055,0.060578,-0.032807,-0.02884,-0.09781
-0.05539,-0.090181,-0.075227,-0.048676,0.013886,-0.033112,0.049287,-0.07187
-0.036469,-0.032197,-0.076143,-0.17258,0.075227,-0.0080873,0.069429,0.034028
-0.029755,0.062409,-0.15488,-0.17197,0.1149,0.034638,0.21927,0.057832
-0.021515,0.1796,-0.14969,-0.1268,-0.0071717,-0.0096132,0.25956,0.019989
-0.04654,0.21469,-0.098421,-0.10483,-0.091707,-0.13077,0.10544,-0.039216
-0.085908,0.054475,-0.058442,-0.09781,-0.078279,-0.015717,-0.62028,-0.085298
-0.11521,-0.056306,-0.047761,-0.10178,-0.065461,0.0086976,-0.69596,-0.00015259
-0.073091,-0.13046,0.034638,-0.058442,-0.063935,0.035248,0.26963,0.1149
-0.0032044,-0.12375,-0.043793,-0.033417,-0.037079,0.038605,0.13687,0.1326
0.03769,-0.10666,-0.045014,-0.046845,-0.00015259,0.019989,0.075227,0.10391
0.044404,-0.083772,-0.041962,-0.060578,0.023651,0.0065614,0.097505,0.033112
0.025788,-0.044099,-0.072175,-0.048676,0.028229,0.0206,0.12924,-0.026703
-0.0028992,-0.026703,-0.038911,-0.042573,0.040436,0.037079,0.15824,-0.058747
0.0047303,-0.050202,-0.024262,-0.015412,0.056001,0.075532,0.17502,-0.052949
0.016022,-0.050507,-0.03769,-0.046845,0.056001,0.069734,0.010529,-0.074006
0.005951,-0.049592,-0.050202,-0.064546,0.025483,-0.11246,-0.5507,-0.14176
0.011139,-0.17624,0.013581,-0.082856,0.034943,-0.16922,-0.19699,-0.083467
-0.012055,-0.25834,-0.058137,-0.16861,-0.00015259,0.10391,0.17288,-0.033417
-0.057221,-0.076143,-0.11856,-0.20981,-0.0071717,0.086519,0.2855,-0.012055
-0.054475,-0.0056458,-0.015412,-0.013581,0.009308,0.011139,0.25162,0.017548
-0.091096,0.091707,-0.10269,-0.065766,0.031891,-0.0383,0.067597,0.04715
-0.1445,0.16831,-0.14664,-0.089876,0.022736,-0.049287,-0.28183,0.087434
-0.12192,0.14237,-0.11704,-0.0795,-0.035248,0.014496,-0.23819,0.097505
-0.11917,0.15122,-0.084688,-0.11063,-0.032197,0.005951,-0.074006,0.086213
-0.036469,-0.052033,-0.036774,-0.072786,-0.07126,0.041352,0.1265,0.10452
0.0068666,0.012665,-0.086213,-0.061189,-0.025177,0.042267,0.18875,0.080415
0.032807,-0.009308,-0.043183,-0.06424,0.018158,0.012055,0.049592,0.055085
0.07248,-0.13657,0.026093,0.077363,-0.0096132,0.026398,0.037385,-0.0032044
0.076448,-0.21958,-0.0080873,-0.14755,0.0099184,0.016632,0.002594,-0.053559
0.0383,-0.15763,-0.020905,-0.21286,0.059052,-0.0062562,0.0035096,-0.06302
0.032197,-0.13474,-0.036164,0.065461,0.052033,0.0068666,0.010834,-0.059663
0.041352,-0.1088,-0.042878,0.04593,0.063935,0.021515,0.0038148,-0.059358
-0.015412,0.0083925,-0.050507,-0.20737,0.054475,-0.0080873,0.060578,-0.05539
-0.062715,0.018463,-0.069123,-0.074617,0.019074,0.0086976,0.24216,0.0065614
-0.089265,0.00045777,-0.089265,-0.081636,0.023957,0.002594,0.34012,0.041657
-0.075837,-0.081636,-0.10117,-0.09781,-0.021515,0.00045777,-0.20401,0.0068666
-0.050813,0.018158,-0.10971,-0.11643,-0.02945,-0.030976,-0.9398,0.016022
-0.08072,0.099641,-0.1146,-0.098726,-0.034638,0.0065614,0.10086,0.058137
-0.15671,0.11429,-0.081331,-0.087739,-0.041047,0.026093,0.1857,0.059663
-0.12619,0.049287,-0.056001,-0.087434,-0.0013733,0.031281,0.2739,0.078279
-0.059968,-0.045624,-0.016022,-0.081636,-0.0010681,0.060273,0.36912,0.094759
-0.031586,0.0013733,-0.0383,-0.076753,-0.01236,0.0099184,0.033417,0.099641
-0.0062562,-0.034943,-0.039826,-0.068513,0.0080873,-0.098421,-0.41215,0.067597
0.0050355,-0.066987,-0.048981,-0.010834,0.029755,-0.026093,-0.22141,-0.01297
0.034943,-0.11429,-0.053254,-0.06424,0.0035096,0.08072,0.30442,-0.024872
0.034333,-0.14359,-0.052644,-0.11856,-0.019074,0.073396,0.074617,-0.029145
0.047761,-0.16403,-0.0090028,-0.099336,0.027924,0.028229,0.067597,-0.07187
0.062409,-0.168,-0.0065614,-0.093538,0.082246,0.0071717,0.035248,-0.08011
0.051728,-0.10208,-0.015412,-0.029145,0.079805,-0.0074769,0.0041199,-0.13352
-0.0096132,-0.010834,-0.070344,0.023651,0.056916,-0.013886,0.027008,-0.10147
0.0074769,-0.01297,-0.095369,0.044709,0.020905,-0.033112,-0.010224,-0.036774
-0.093843,0.023651,-0.050507,-0.10361,0.04715,-0.04593,-0.073701,-0.072786
-0.11643,0.029145,-0.11154,-0.1619,0.03769,-0.013275,-0.10452,0.013886
-0.13748,0.047456,-0.1088,-0.13993,-0.064851,0.041352,0.029145,0.14664
-0.12375,0.019989,-0.051728,-0.10452,-0.065156,0.035248,0.048066,0.14237
-0.08835,0.044099,-0.066987,-0.074922,-0.015717,-0.0080873,0.070039,0.15518
-0.078889,0.089265,-0.1146,-0.12558,-0.0050355,0.00015259,0.049287,0.13779
-0.019379,0.051118,-0.10147,-0.056306,-0.033417,0.013275,0.016938,0.11673
-0.026703,-0.014496,-0.028229,-0.00015259,-0.034638,0.034333,0.011749,0.044099
-0.0044251,-0.08072,0.0016785,-0.073091,0.033417,0.074922,0.073396,-0.012055
0.015412,-0.094759,-0.030671,-0.061799,0.03006,0.020905,0.048371,-0.030671
0.039826,-0.1207,-0.0041199,-0.13779,0.027314,0.0013733,-0.032502,-0.046845
0.075227,-0.17868,0.024262,-0.056916,0.063935,-0.0056458,-0.0032044,-0.043183
0.079805,-0.21073,-0.0383,-0.022736,0.053864,0.023346,0.082551,-0.048981
0.03769,-0.11429,-0.070344,-0.12558,0.050507,0.0010681,-0.024567,-0.068818
0.0013733,-0.01236,-0.079194,-0.20493,0.031586,0.00045777,-0.10636,-0.066682
0.0035096,-0.069734,-0.056306,0.20554,0.0041199,0.027314,0.017853,-0.062715
-0.04593,-0.0086976,-0.091096,-0.2208,0.034333,0.011139,0.070039,-0.024262
-0.10361,0.0206,-0.086519,-0.11734,-0.0019837,0.011139,0.11246,0.031891
-0.11398,0.055695,-0.08835,-0.0795,-0.074922,0.040742,0.18479,0.086824
-0.099336,0.059663,-0.11032,-0.075837,-0.041047,-0.03006,-0.18784,0.090486
-0.075837,0.051728,-0.09659,-0.038605,-0.048676,-0.023957,-0.43076,0.02945
-0.070039,0.032197,-0.1033,-0.029145,-0.04593,0.0062562,0.076448,0.031586
-0.074617,0.04654,-0.08011,0.022126,-0.018158,0.025483,0.044099,0.055085
-0.032807,0.041962,0.039521,-0.13199,0.0080873,0.053559,0.23484,0.098726
0.019074,-0.072175,-0.034333,-0.2208,0.0065614,0.045014,0.17655,0.0795
0.025483,-0.094759,-0.073396,-0.092927,0.030365,-0.02884,-0.054475,-0.034943
0.026703,-0.065766,-0.038911,-0.11276,0.08835,0.042573,0.21988,-0.053864
-0.020905,-0.010224,-0.031891,-0.07126,-0.00045777,0.066682,0.24308,-0.016938
0.013275,-0.10544,-0.0053407,0.084077,0.0056458,-0.030976,0.033722,0.0047303
0.010529,-0.097505,-0.036774,-0.0206,0.0795,-0.065461,-0.77562,-0.085298
-0.025177,-0.083772,-0.042573,-0.067597,0.099947,-0.023346,-0.37705,-0.032807
-0.023041,-0.18418,-0.0028992,-0.017243,0.025177,0.038605,0.38254,0.0090028
-0.018158,-0.23178,-0.036469,-0.068818,0.043183,-0.049287,0.12284,-0.017243
-0.045319,-0.045624,-0.099031,-0.13077,0.05417,0.013275,0.074311,-0.015106
-0.083162,0.10971,-0.12741,-0.12772,-0.013581,0.038911,0.0074769,-0.023346
-0.076143,0.12436,-0.060273,-0.11398,-0.041352,0.13779,-0.0053407,0.026093
-0.071565,0.0795,-0.05417,-0.084382,-0.035248,0.11765,-0.045624,0.070649
-0.070039,0.044099,-0.12497,-0.10361,-0.033417,-0.10147,0.0050355,0.066682
-0.082246,0.051728,-0.10452,-0.098726,-0.036469,-0.03006,0.07187,0.067292
-0.043183,-0.048371,-0.06302,-0.08072,-0.041657,0.018769,0.077363,0.073396
-0.019684,-0.1088,-0.03769,-0.034333,-0.035248,0.0047303,0.066377,0.08011
0.02121,-0.059968,-0.040436,-0.05417,0.010529,-0.027619,0.028229,0.061189
0.032807,-0.019989,-0.032197,-0.079194,0.051118,-0.039826,0.0053407,-0.0062562
0.031281,-0.10422,-0.00045777,-0.063325,0.02945,0.024872,-0.016632,-0.037385
0.023651,-0.13046,-0.012055,-0.047456,0.0090028,0.033112,-0.013275,-0.042573
-0.020294,-0.094148,-0.022736,-0.036164,0.024872,0.011444,0.039216,-0.038605
0.0028992,-0.10269,-0.045624,-0.032197,0.069123,0.016938,0.057832,-0.028229
0.02121,-0.09781,-0.07126,-0.049592,0.067903,0.0080873,0.023041,-0.0090028
-0.032807,0.00015259,-0.086824,-0.10849,0.050202,0.0083925,-0.0071717,-0.062104
-0.092317,0.047456,-0.078889,-0.10239,0.0065614,0.019379,-0.060883,-0.07187
-0.094148,0.062715,-0.095369,-0.090791,-0.036774,0.041352,0.027314,-0.063935
-0.091096,0.077974,-0.077363,-0.09781,-0.032807,0.034333,0.082551,-0.043488
-0.09781,0.070649,-0.098726,-0.2089,0.0065614,-0.018158,0.0068666,0.02182
-0.053864,0.0206,-0.056001,0.0013733,0.014801,-0.037385,0.013275,0.099031
0.014191,-0.096284,-0.072175,0.040131,0.013581,-0.02945,0.27726,0.10239
0.015412,-0.045624,-0.090486,-0.21164,-0.019379,0.0013733,0.32364,0.099031
0.014801,-0.0206,-0.077363,-0.1033,-0.075837,0.042267,0.06363,0.095674
-0.0044251,-0.091402,-0.047761,-0.036469,-0.053254,-0.031891,-0.70207,0.045319
0.0071717,-0.12222,-0.012665,-0.032502,0.040436,-0.036164,-0.4332,0.010834
0.031281,-0.10025,0.0056458,-0.1146,0.056916,0.06424,0.44907,0.058442
0.029145,-0.094148,-0.01297,-0.1326,0.023041,0.030365,0.36637,0.017243
0.019684,-0.096284,-0.016632,-0.01297,0.055085,0.0080873,0.28275,-0.024262
0.016632,-0.086824,-0.059358,-0.050507,0.065156,-0.0010681,-0.6038,-0.069123
0.010834,-0.070039,-0.077058,-0.098421,0.054475,0.0028992,-0.56687,-0.11185
-0.019379,-0.061799,-0.042573,-0.053559,0.035859,0.051728,0.27268,-0.081025
-0.045624,-0.012665,-0.066682,-0.043183,0.023651,0.035554,0.13291,-0.063325
-0.081636,-0.010224,-0.07126,-0.014801,-0.0035096,0.0062562,0.11002,-0.00015259
-0.092317,0.051728,-0.051728,-0.064851,0.021515,-0.036469,-0.038605,-0.0013733
-0.11307,0.036469,-0.074617,-0.08835,0.017243,-0.057832,-0.023346,0.015717
-0.13077,0.11032,-0.16007,-0.14145,-0.025483,-0.0038148,-0.0068666,0.068513
-0.12131,0.11002,-0.095369,-0.069123,-0.046845,0.051728,0.08835,0.10544
-0.062104,0.019074,-0.05417,-0.094759,-0.075532,0.047456,0.082856,0.121
-0.044709,-0.034638,-0.044404,-0.11154,-0.069123,0.034028,0.042878,0.082856
0.0010681,-0.024567,-0.072786,-0.14328,0.015412,-0.020294,0.031281,0.048066
-0.0047303,-0.067903,-0.012055,-0.099947,0.048371,-0.0053407,0.005951,0.033417
0.019074,-0.1619,0.026093,-0.043488,0.009308,0.014191,-0.013275,-0.012665
0.020294,-0.19852,-0.026703,-0.072175,0.0056458,0.016022,0.028229,-0.021515
0.034333,-0.14084,-0.044099,-0.065156,0.010529,0.027924,0.068208,-0.05539
0.059358,-0.1323,-0.027008,-0.034638,0.0090028,0.052338,0.18936,-0.041352
0.0028992,-0.11246,-0.023041,0.0013733,0.039826,0.034638,0.13413,-0.066987
0.030365,-0.078279,-0.024262,0.015412,0.082551,-0.022126,-0.1268,-0.064851
0.020294,-0.015412,-0.053254,-0.044709,0.086519,-0.079194,-0.31662,-0.018158
0.011749,-0.010224,-0.10269,-0.024262,0.019379,-0.023957,-0.017548,-0.0090028
-0.071565,0.075227,-0.1384,-0.26291,0.017243,0.0077821,-0.023346,0.031586
-0.14786,0.15763,-0.083162,0.10971,0.043183,0.01236,0.0028992,0.043488
-0.11521,0.13413,-0.099641,-0.25834,0.026703,0.043183,0.088655,0.11917
-0.066987,0.089876,-0.10513,-0.22934,-0.0062562,0.0032044,0.065156,0.12711
-0.084382,0.046235,-0.084382,-0.094759,-0.0972,0.036164,0.17899,0.090181
-0.12253,0.027314,-0.08011,-0.074311,-0.069734,0.054475,0.12406,0.060273
-0.10361,0.0056458,-0.092927,-0.10513,-0.043183,0.077363,0.026703,0.048371
-0.065156,-0.050507,-0.03769,0.035248,-0.051423,0.07126,0.094759,0.05417
0.012055,-0.13779,-0.024872,-0.060578,-0.033722,0.019989,0.097505,0.0096132
0.052338,-0.18662,0.034028,-0.097505,0.06363,-0.018769,-0.0096132,-0.015717
0.05539,-0.095979,0.033417,-0.047456,0.068208,0.037079,0.092012,-0.076753
0.033417,-0.076753,-0.0062562,0.073396,0.057221,-0.041047,-0.33249,-0.077058
0.035859,-0.11856,-0.047761,0.010834,0.07126,-0.039521,-0.2031,-0.039216
0.034028,-0.10452,-0.059052,-0.18784,0.076753,-0.019379,0.029755,-0.044709
0.031586,-0.13352,-0.040131,-0.065461,0.053864,-0.03006,-0.025788,-0.06302
0.062104,-0.23636,-0.017853,0.02121,-0.029145,0.040436,0.065766,-0.038911
0.044099,-0.23606,-0.040742,-0.020294,0.015106,0.047456,0.13474,-0.03769
-0.074006,0.027924,-0.15457,-0.097505,0.036164,0.016327,0.24918,-0.036774
-0.0972,0.1677,-0.13718,-0.29038,0.059052,-0.042267,0.19944,0.074617
-0.092927,0.14542,-0.11948,-0.26383,0.068513,-0.065156,-0.1207,0.095979
-0.093233,0.12009,-0.078889,0.1799,-0.041657,0.0071717,-0.22538,0.020905
-0.11429,0.10727,-0.058442,-0.21592,-0.075227,0.027008,-0.55253,0.010834
-0.10605,0.067597,-0.085908,-0.082551,-0.059052,0.048371,-0.25437,0.086824
-0.0383,0.045319,-0.036469,0.0035096,-0.052644,0.090791,0.4448,0.10452
0.010529,-0.080415,-0.016632,-0.002594,-0.027619,-0.0032044,0.15549,0.052338
0.026703,-0.14359,-0.028534,-0.076448,0.025788,-0.073701,-0.010834,0.057832
0.030976,-0.14664,-0.028229,-0.081636,0.035859,-0.032807,-0.077363,0.0028992
0.025788,-0.1442,0.0062562,-0.05539,-0.00076295,0.089876,0.062104,-0.022126
0.0053407,-0.10849,0.005951,-0.03006,0.015412,0.087434,0.040131,-0.0074769
0.0065614,-0.064851,-0.058137,-0.042573,0.04593,-0.017243,0.011139,-0.027008
-0.030365,-0.034638,-0.050813,-0.0096132,0.07187,-0.044099,0.0047303,-0.073701
-0.02884,-0.027924,-0.065766,-0.10239,0.11612,0.002594,0.056611,-0.033417
-0.024567,-0.077974,-0.041047,-0.12497,0.058442,0.048371,0.056001,-0.020294
-0.024262,-0.12436,-0.0795,-0.091402,-0.049897,0.0090028,0.036164,-0.031891
-0.024567,0.0096132,-0.11673,-0.121,-0.013581,-0.02121,0.013886,-0.039216
-0.075532,0.07248,-0.11124,-0.11032,-0.017548,0.026093,0.034333,0.01297
-0.13565,0.10513,-0.11276,-0.11734,-0.028229,0.038605,0.053559,0.042878
-0.11307,0.060578,-0.070649,-0.08957,-0.041352,0.044709,0.094148,0.058137
-0.071565,0.021515,-0.062715,-0.081636,-0.052033,0.048981,0.1088,0.062104
-0.06363,0.060273,-0.08957,0.0206,-0.030671,0.0010681,-0.11154,0.029145
-0.020905,0.011444,-0.049287,-0.056916,-0.047761,-0.043488,-0.1207,0.039826
0.0065614,-0.042878,-0.03006,-0.17594,-0.050813,-0.10819,-0.011139,0.046235
0.013581,-0.094759,-0.019074,-0.18357,0.058442,-0.0099184,-0.002594,0.040131
0.033417,-0.14572,-0.00045777,-0.055695,0.0795,0.076753,0.06302,0.0080873
0.034333,-0.096895,-0.02884,-0.025483,0.030976,0.062715,0.15274,-0.044709
0.065156,-0.19852,-0.030671,-0.035554,0.037995,0.022126,0.28458,-0.055085
0.075837,-0.22141,-0.005951,0.08835,0.065156,-0.014801,0.073701,-0.082246
0.038911,-0.056306,-0.056001,-0.099947,0.083162,-0.09659,-0.97063,-0.11978
-0.024872,-0.031586,-0.082246,-0.10147,0.076448,-0.045624,-0.17441,-0.057527
-0.049592,-0.042878,-0.059358,-0.087434,0.023651,0.071565,0.37247,-0.034943
-0.070039,0.057221,-0.091096,-0.085908,-0.018463,0.083162,0.12619,0.035554
-0.081025,0.060273,-0.085908,-0.084688,-0.024872,0.026398,0.077974,0.096895
-0.10178,0.051423,-0.064851,-0.10575,-0.013581,-0.024872,0.10208,0.098726
-0.091707,0.028229,-0.060273,-0.089876,-0.0083925,-0.00015259,0.23026,0.14694
-0.08957,0.068513,-0.10483,-0.11124,-0.026703,0.0206,0.070344,0.15824
-0.12314,0.088045,-0.10819,-0.12741,-0.039216,0.014496,-0.11978,0.098421
-0.11215,0.069734,-0.075837,-0.10758,-0.044709,0.0019837,-0.093233,0.060578
-0.035248,-0.016938,-0.042878,-0.05539,-0.04654,0.040131,0.091402,0.060273
0.035554,-0.084993,-0.048981,-0.012665,-0.044709,0.087129,0.19944,-0.002594
0.07126,-0.17899,-0.030365,0.059968,-0.0041199,0.01236,-0.070649,-0.064851
0.057527,-0.19638,-0.014496,-0.16983,0.043488,-0.031891,-0.4448,-0.074617
0.065766,-0.25498,0.044099,0.066987,0.094453,-0.093538,0.073701,-0.023346
0.068208,-0.11337,-0.0086976,-0.12375,0.050202,-0.023346,0.28,-0.0047303
0.012665,-0.052338,-0.055695,-0.10758,0.02121,0.0022889,0.15915,-0.034943
-0.051118,-0.031891,-0.064851,-0.061799,0.043488,0.091707,0.083772,0.0068666
-0.064851,0.049897,-0.084077,-0.092927,0.17288,0.022126,-0.28489,0.00076295
-0.01236,0.019684,-0.076448,-0.1088,0.13291,-0.024262,-0.35599,-0.045014
-0.08896,0.029755,-0.052644,-0.099336,-0.043488,0.061494,0.19547,-0.059052
-0.096895,0.035859,-0.13382,-0.084382,-0.083772,0.036469,0.08957,0.027924
-0.12863,0.044709,-0.088045,-0.095369,-0.056611,0.0099184,0.1323,0.041047
-0.098116,-0.013886,-0.103,0.0071717,-0.06302,0.0083925,0.12863,0.062104
-0.060883,-0.03006,-0.074617,0.082246,-0.059968,0.02121,0.02182,0.092317
-0.048676,0.0038148,-0.016632,-0.055695,-0.0068666,-0.091707,0.0080873,0.061799
-0.0050355,-0.061799,-0.0099184,-0.23545,-0.019379,-0.1088,0.037995,0.074311
-0.018158,-0.026093,-0.059968,-0.23697,-0.0010681,-0.037995,-0.069123,0.0010681
0.002594,-0.053559,-0.056916,-0.17105,-0.028534,0.15702,0.0041199,-0.0022889
0.019989,-0.05539,-0.038605,-0.014191,0.0086976,0.40146,0.31785,-0.0013733
0.025483,-0.0206,-0.062715,0.0013733,0.099336,0.025483,0.3328,-0.089876
0.044099,0.046235,-0.065766,-0.015106,0.041352,-0.1146,0.019379,-0.13535
0.00045777,-0.026093,-0.0080873,-0.037385,0.033722,-0.034333,-0.47593,-0.14939
0.035859,-0.19974,-0.0086976,-0.036164,0.055085,-0.18265,-1.0933,-0.040742
0.081331,-0.25864,0.082856,-0.026703,0.033417,-0.0099184,0.0035096,0.051728
0.021515,-0.18784,-0.059052,-0.05478,0.038911,0.044709,0.35752,0.045319
-0.070649,0.019379,-0.14572,-0.059663,0.026703,-0.027008,0.062104,0.0050355
-0.092927,0.1265,-0.13352,-0.078279,0.017853,-0.015106,0.084382,0.024262
-0.14084,0.11978,-0.11856,-0.12375,-0.0056458,-0.031891,0.050202,0.033417
-0.13596,0.090486,-0.1088,-0.16709,-0.0090028,0.010224,0.073701,0.069123
-0.081025,0.013581,-0.09659,-0.13931,-0.0013733,0.092927,0.23545,0.13779
-0.094453,0.031586,-0.032197,-0.088655,-0.041047,0.069429,0.26993,0.098116
-0.070039,0.05417,-0.091096,-0.093233,-0.048676,0.027924,0.065461,0.06302
-0.0096132,0.03006,-0.056306,-0.095674,-0.028534,-0.039826,-0.27268,0.052338
0.0077821,-0.072175,-0.035554,-0.06363,-0.022126,-0.056306,-0.19242,0.016022
0.0028992,-0.098116,-0.03006,-0.051118,-0.030671,0.051423,0.17502,-0.0013733
0.034028,-0.18296,-0.0096132,-0.040742,-0.0032044,0.032197,0.068513,-0.0071717
0.039521,-0.16617,-0.019074,-0.028534,0.022126,0.031586,0.0383,-0.036469
0.034333,-0.11398,-0.0013733,0.0019837,0.043793,0.012055,0.011444,-0.084382
-0.021515,-0.088655,-0.019684,-0.12711,0.088045,-0.031586,-0.018463,-0.077668
-0.0071717,-0.096895,-0.032807,0.20645,0.1088,-0.018769,0.0080873,-0.02884
-0.0080873,-0.070039,-0.055085,-0.15579,0.065156,0.010224,0.0099184,-0.0028992
-0.00076295,-0.10849,-0.06302,-0.21714,-0.0041199,0.049287,0.023651,-0.022431
-0.041047,0.033722,-0.14572,-0.10239,-0.020294,0.043183,0.0077821,-0.021515
-0.028229,0.047456,-0.099336,-0.11154,0.0068666,0.010224,-0.033112,0.033722
-0.050813,0.053254,-0.08835,-0.10727,0.016938,0.005951,-0.044404,0.047761
-0.079194,0.076143,-0.10117,-0.082551,-0.0022889,-0.020905,0.016632,-0.0050355
-0.079194,0.07126,-0.11826,-0.087739,-0.067903,0.002594,0.079805,0.02182
-0.035248,-0.0083925,0.027619,-0.05478,-0.08896,0.010224,0.10208,0.058137
-0.030365,-0.030671,-0.026703,-0.042878,-0.023651,-0.029145,-0.11917,0.020905
-0.056916,-0.047761,-0.06302,-0.08957,0.012055,0.022431,-0.077668,0.022126
-0.040742,-0.026398,-0.074006,-0.09659,0.0096132,0.019989,0.066072,0.039826
-0.043793,0.040131,-0.060883,-0.060883,-0.012665,0.013275,-0.0068666,0.031586
-0.04593,0.010529,-0.045014,-0.048371,0.0032044,0.062715,0.1387,0.022126
0.012665,-0.12161,0.03006,-0.057221,0.056001,0.064851,0.11002,0.07187
0.075837,-0.21408,-0.01236,-0.06302,0.03769,0.071565,0.051423,0.069429
0.06363,-0.15854,-0.053254,-0.077363,0.029755,0.08957,0.21378,-0.010529
0.0047303,-0.15854,-0.037079,-0.032807,0.046845,-0.052033,0.058442,-0.0047303
0.015412,-0.2034,-0.017548,-0.0096132,0.088655,-0.3209,-0.42771,-0.034943
-0.022126,-0.044404,-0.078889,-0.068818,0.10452,-0.011139,-0.48295,-0.103
-0.070649,0.12833,-0.1268,-0.12528,0.07126,0.11978,0.23819,-0.037385
-0.096895,0.11978,-0.096895,-0.15854,0.033722,0.02121,0.1387,0.063325
-0.081941,0.081941,-0.091402,-0.14481,-0.041962,0.042573,-0.0074769,0.061799
-0.073091,0.026703,-0.099641,-0.10056,-0.098421,0.055085,0.10483,0.068208
-0.062715,0.015717,-0.12436,-0.10147,-0.071565,0.00076295,0.014801,0.048981
-0.058747,0.0077821,-0.010224,-0.085908,-0.050507,-0.015717,-0.032807,0.047456
-0.042878,-0.0077821,-0.034943,-0.057527,-0.037385,-0.017548,-0.045014,0.0383
-0.052949,0.014496,-0.070039,-0.072786,-0.002594,-0.020905,0.01297,-0.0028992
-0.032807,-0.047456,-0.026703,-0.066987,-0.0080873,0.032197,0.17044,0.0056458
-0.0080873,-0.092317,-0.012055,-0.034333,-0.0053407,0.05478,0.38926,0.0086976
0.011139,-0.10605,-0.026398,-0.031281,0.033112,0.0050355,0.3328,-0.017548
0.039826,-0.12436,-0.0090028,-0.02945,0.053559,-0.043793,-0.54124,-0.11215
0.0086976,-0.094148,-0.0099184,-0.057221,0.043488,-0.020905,-0.82017,-0.13779
0.040436,-0.10147,-0.028229,-0.07248,0.034333,0.040131,0.24033,-0.049897
0.02121,-0.10178,-0.038605,-0.067597,0.055085,0.0053407,0.077974,-0.035554
-0.0053407,-0.10025,-0.042573,-0.056306,0.045014,0.019379,0.019989,-0.018769
-0.040436,-0.032502,-0.10849,-0.056306,0.0068666,0.043183,0.11276,-0.0080873
-0.030671,0.014191,-0.10819,-0.033417,-0.010224,0.034028,0.098116,0.011139
-0.044709,0.052338,-0.12558,-0.21195,-0.031586,-0.0016785,0.002594,0.02945
-0.10147,0.095674,-0.10239,-0.17868,0.046845,-0.084077,-0.061494,0.065766
-0.11398,0.037995,-0.085298,-0.082246,0.017243,-0.025177,0.063935,0.1149
-0.12741,0.078584,-0.103,-0.10147,-0.015106,0.0062562,0.23148,0.1091
-0.068208,0.019379,-0.084993,-0.14084,-0.053254,0.058442,0.23636,0.10971
0.00045777,-0.060883,-0.013581,-0.14054,-0.066987,0.068818,0.085298,0.093538
0.022736,-0.074311,-0.033722,0.18357,-0.028534,0.032197,-0.35569,-0.0062562
0.027924,-0.081636,-0.04715,-0.17777,0.035554,0.0071717,-0.043183,0.014191
0.04654,-0.12222,-0.0080873,-0.019684,0.012055,0.0068666,0.15702,0.0019837
0.06363,-0.11826,-0.023651,0.0068666,0.060273,-0.037385,-0.19791,-0.070039
0.020294,-0.082856,-0.039826,-0.024262,0.10605,0.018463,-0.1146,-0.087739
0.011139,-0.056001,-0.052644,-0.060883,0.018769,0.066682,0.13504,-0.059968
0.016632,-0.01297,-0.036469,-0.11398,-0.018158,-0.0035096,-0.031891,-0.030671
-0.0383,-0.099336,-0.029755,-0.11032,0.062409,-0.02884,0.012665,-0.035859
-0.058137,-0.073701,-0.046235,-0.064546,0.070344,0.035248,0.085298,0.019684
-0.077974,0.025483,-0.097505,-0.053559,-0.016938,0.023957,0.10849,0.034333
-0.077363,0.055085,-0.082551,-0.037079,-0.022736,0.018769,0.24979,0.063935
-0.08957,0.031586,-0.093538,-0.15763,-0.028229,0.016022,0.24308,0.12314
-0.073701,-0.084688,-0.067903,-0.15763,-0.0080873,-0.04715,0.048981,0.10056
-0.042573,-0.14572,-0.099641,-0.058747,-0.0096132,-0.05539,-0.79881,0.015717
-0.019074,0.017853,-0.08835,-0.10178,-0.033112,-0.015106,-0.25589,0.03006
-0.023346,0.13993,-0.088655,-0.1384,-0.058442,0.026093,0.37888,0.036774
-0.025483,0.099947,-0.064851,-0.10697,-0.035554,0.028534,0.088655,-0.018158
0.01297,-0.020294,-0.02884,-0.033112,-0.012665,0.062104,0.20951,0.011139
-0.031586,-0.050202,-0.032807,-0.044099,-0.0035096,0.038605,0.17868,-0.049897
-0.068818,-0.064851,-0.040436,-0.1033,0.066682,0.02884,0.010529,-0.045014
-0.065766,-0.15244,-0.015412,-0.058137,0.036164,-0.026093,-0.44144,-0.06363
-0.027619,-0.1387,0.0062562,-0.015412,0.017243,-0.032197,-0.15427,-0.059358
-0.0035096,-0.13046,-0.00076295,-0.01297,0.027924,0.042267,0.18448,-0.014191
-0.0013733,-0.1796,0.05478,-0.036469,0.055085,0.041657,0.2031,-0.0074769
-0.051118,-0.0077821,-0.078889,-0.085603,0.062409,0.0083925,0.1442,0.0041199
-0.053254,0.064546,-0.099031,-0.09659,0.033417,-0.0099184,-0.19181,0.0077821
-0.0019837,0.034333,-0.096284,-0.094453,-0.0041199,-0.0019837,-0.097505,0.002594
-0.012055,-0.030365,-0.12284,-0.093843,-0.009308,-0.0086976,-0.0083925,-0.039826
-0.040742,-0.02182,-0.094453,-0.1033,-0.020905,0.012665,0.081636,0.002594
-0.053559,0.028534,-0.03769,0.02182,-0.024872,-0.0022889,0.030976,0.053254
-0.0383,0.048371,-0.10117,-0.052338,-0.026398,-0.015717,-0.011444,0.076143
-0.0068666,0.021515,-0.10727,-0.31022,-0.026703,-0.013886,-0.017243,0.10025
-0.009308,-0.0206,-0.11704,-0.22904,-0.025788,-0.016938,-0.040742,0.089876
0.022736,-0.0099184,-0.075227,-0.14115,-0.071565,0.044099,0.045014,0.064546
0.015717,-0.078584,-0.0053407,0.22721,-0.053254,0.052644,0.085298,0.0013733
0.027314,-0.11032,0.045014,0.0035096,0.027619,-0.027314,0.027008,-0.019074
-0.014191,-0.034638,-0.048981,-0.18387,0.069429,-0.036164,-0.0062562,-0.047761
0.025788,-0.084382,-0.0038148,0.044709,0.19303,-0.00015259,0.02884,-0.037079
0.0383,-0.11643,0.035554,0.070954,0.19242,-0.018769,-0.058747,-0.043488
0.023346,-0.10239,-0.056001,-0.040436,0.078584,-0.014191,-0.10391,-0.073091
-0.0041199,-0.14359,-0.082246,-0.12924,0.013275,0.014191,0.16129,-0.045014
-0.052644,-0.065461,-0.1088,-0.13748,-0.0010681,0.010834,0.1387,-0.0056458
-0.063935,-0.08011,-0.08011,-0.096284,-0.031586,0.031586,-0.043793,0.0032044
-0.098421,-0.12955,0.032807,-0.05417,-0.040742,0.0099184,-0.25437,-0.011444
-0.16434,0.087739,-0.12772,-0.093843,-0.020294,0.017853,-0.075837,0.02945
-0.16434,0.16129,-0.12039,-0.11246,-0.052644,0.082551,0.28,0.078584
-0.14633,0.13474,-0.10025,-0.12863,-0.081331,0.070649,0.18387,0.13443
-0.093233,0.050202,-0.10056,-0.23117,-0.074006,0.05417,0.12528,0.1265
-0.054475,0.034638,-0.081941,-0.19486,-0.039216,0.016938,-0.079805,0.089265
-0.018158,0.012665,-0.048981,-0.009308,-0.0206,-0.023041,-0.10208,0.090791
0.0053407,-0.033722,-0.045624,-0.041047,0.0016785,-0.027008,0.023651,0.061799
0.038911,-0.093843,-0.023041,-0.043183,0.0035096,0.023957,0.0065614,0.039521
0.049897,-0.15549,-0.024567,-0.035248,0.013275,0.018769,-0.030365,0.022736
0.050202,-0.14054,0.0022889,-0.034943,0.043183,-0.067903,-0.028534,-0.023346
0.067292,-0.13657,-0.024872,-0.018463,0.045624,-0.053559,-0.057221,-0.056611
0.049287,-0.084077,-0.053864,-0.0096132,0.066072,0.04654,-0.00015259,-0.1091
0.032807,-0.073701,-0.043793,0.0038148,0.074006,0.009308,0.00045777,-0.15091
0.014801,-0.046235,-0.058747,-0.15518,0.045624,-0.011749,-0.036774,-0.14145
0.0016785,-0.03006,-0.060273,-0.040436,0.038911,-0.023041,-0.04715,-0.10819
-0.025177,0.018463,-0.084077,-0.089265,0.032807,0.0206,0.010834,-0.036469
-0.07187,0.045319,-0.098116,-0.099031,-0.014801,0.018463,0.019379,0.013886
-0.090791,0.032502,-0.090486,-0.13931,-0.024872,0.031586,0.066377,0.027314
-0.085603,0.031586,-0.095979,-0.1146,0.0050355,-0.014801,0.088045,0.070649
-0.068208,0.03769,-0.085298,-0.034638,-0.047456,-0.023346,0.010834,0.076448
-0.10544,0.06424,-0.086213,-0.084688,-0.013581,-0.0047303,-0.11337,0.077668
-0.057832,0.0013733,-0.052033,-0.15763,-0.01297,0.02945,0.094148,0.1326
-0.024262,-0.051728,-0.053864,-0.15702,-0.044404,0.052644,0.38712,0.13046
-0.016938,-0.032197,-0.013886,-0.06302,-0.0032044,-0.0053407,0.28,0.081941
0.0010681,-0.10025,-0.036164,-0.010224,0.013886,-0.0972,-0.69871,0.025483
-0.032502,-0.070649,-0.010529,-0.04715,0.0383,0.016327,-0.40879,-0.023346
-0.0062562,-0.13352,0.013581,-0.011139,0.034333,0.17166,0.26963,-0.025177
-0.0071717,-0.11612,-0.019684,-0.030671,0.039521,0.25772,0.030365,-0.033417
-0.017548,-0.10147,-0.060273,-0.081636,0.079194,0.017853,0.043183,-0.045624
0.057527,-0.073396,-0.068208,-0.068818,0.023957,-0.14847,0.10758,-0.039216
0.031891,0.0032044,-0.056306,-0.069734,-0.00015259,0.016022,0.048981,-0.059358
-0.037079,-0.014496,-0.076143,-0.087129,0.016938,-0.039521,-0.031281,-0.093538
-0.024872,-0.0022889,-0.046235,-0.095369,0.023651,-0.063325,0.069123,-0.053559
-0.027314,-0.076143,-0.085298,-0.10117,-0.0056458,0.018463,0.085298,-0.0086976
-0.073091,-0.049897,-0.11307,-0.10269,-0.020905,0.044099,0.081636,0.019989
-0.08896,0.10208,-0.08835,-0.096895,-0.024262,0.0050355,0.051423,0.064546
-0.08011,0.05539,-0.067292,-0.074617,-0.024872,-0.019379,-0.022431,0.069123
-0.027619,0.02945,-0.10147,-0.048981,-0.0047303,-0.024262,-0.026398,0.055695
-0.0383,-0.0041199,-0.077058,-0.10117,0.005951,-0.017548,-0.02121,0.05539
-0.028229,-0.10208,-0.058442,-0.10086,-0.0041199,0.010224,0.017548,0.057832
-0.034638,-0.052949,-0.024567,-0.057221,-0.024567,0.032807,0.043793,0.068208
-0.025788,-0.084688,-0.025788,-0.078584,0.012055,0.0062562,-0.0053407,0.024262
-0.043793,-0.091402,-0.0056458,-0.084382,0.033112,-0.0019837,0.010834,-0.011444
-0.024262,-0.11978,-0.0080873,-0.019074,-0.0010681,0.078279,0.10758,-0.0096132
0.016632,-0.11612,-0.014496,0.010834,-0.016632,0.073701,0.14023,-0.0086976
0.041657,-0.14755,0.0013733,-0.032502,0.029755,0.0068666,0.074617,-0.035859
0.029145,-0.10147,-0.049897,-0.084382,0.13382,-0.024262,-0.03769,-0.063325
0.0032044,0.0041199,-0.103,-0.17716,0.13199,-0.032807,-0.29618,-0.087739
-0.025177,0.072175,-0.11643,-0.1915,-0.030976,0.01297,-0.21439,-0.072175
-0.030365,0.055085,-0.10605,0.17502,-0.076143,0.016022,0.16526,-0.031586
-0.042573,0.058442,-0.11856,-0.1265,0.022736,-0.077974,0.077974,-0.0065614
-0.032807,-0.023651,-0.026703,-0.10575,-0.041047,-0.053254,0.1326,0.077974
-0.039826,-0.041962,-0.06302,-0.18265,-0.081941,-0.005951,-0.029755,0.07248
-0.098421,0.028534,-0.068818,-0.13504,0.019074,-0.048981,-0.26352,0.032807
-0.089876,0.026398,-0.08835,-0.081636,0.057527,0.016632,0.27451,0.12284
-0.089265,0.00045777,-0.059052,-0.073396,-0.014801,0.048371,0.39506,0.07248
-0.12375,0.032502,-0.043183,-0.061189,-0.033417,0.048066,-0.20645,-0.014191
-0.069734,-0.012665,-0.02884,-0.053254,-0.020905,0.035554,-0.52506,0.055695
-0.019379,-0.065461,-0.016327,-0.071565,-0.022126,0.049592,-0.0050355,0.067597
-0.043793,-0.07248,0.0074769,-0.044709,0.028229,-0.018769,-0.31418,-0.011139
0.037079,-0.12467,-0.05417,-0.059663,0.042878,0.058137,0.31296,0.091707
0.084688,-0.16464,-0.039216,-0.056306,0.047761,0.030976,0.31174,0.098726
0.086824,-0.215,-0.074617,-0.058442,0.033417,0.089876,0.23514,-0.052949
0.053864,-0.10361,-0.08011,-0.06363,0.033417,0.066987,0.30686,-0.14817
-0.018769,0.026703,-0.092622,-0.07126,0.034943,-0.041047,-0.10575,-0.13016
-0.074006,0.019989,-0.047761,-0.095369,0.029755,-0.077363,-0.33616,-0.055085
-0.11795,0.040742,-0.08072,-0.091707,0.011139,-0.022736,-0.27176,-0.012055
-0.103,0.0016785,-0.058747,-0.10575,-0.030671,0.061494,0.19089,0.0047303
-0.079194,0.069123,-0.094759,-0.092622,-0.041047,0.021515,0.11521,0.031281
-0.060578,0.065156,-0.092927,-0.065156,-0.034943,-0.0086976,0.011749,0.06363
-0.051118,0.047456,-0.040742,-0.062409,-0.018158,-0.031281,0.019684,0.075532
-0.027008,0.012055,-0.07248,-0.13779,0.0053407,-0.028229,-0.0071717,0.095369
-0.00076295,-0.038605,-0.065766,-0.065156,-0.0044251,0.010834,0.064546,0.10391
0.02945,-0.075837,-0.036774,-0.045014,0.0056458,0.030365,0.070039,0.079805
0.039521,-0.11673,-0.048981,-0.050202,0.0016785,0.040436,0.054475,0.048066
0.070344,-0.21073,-0.026398,-0.096895,0.019684,0.028534,-0.066682,0.00076295
0.064546,-0.17563,0.015412,-0.033722,0.048066,0.030671,-0.016327,-0.079194
0.023041,-0.074006,-0.03769,0.25895,0.084688,-0.0047303,-0.011444,-0.12833
0.012665,-0.12833,0.0056458,-0.3798,0.064546,-0.10544,-0.095979,-0.095064
-0.055695,-0.053559,-0.050813,-0.13748,0.030976,-0.066377,-0.061494,-0.077974
-0.055695,0.0022889,-0.096284,-0.019379,0.0032044,0.056611,0.02945,-0.038605
-0.070954,0.016327,-0.080415,0.0050355,-0.026703,0.043183,0.076143,-0.0383
-0.034638,-0.018769,-0.078279,-0.06363,-0.043183,0.026093,0.047761,-0.009308
-0.035554,0.058137,-0.10452,-0.14481,0.025788,-0.0038148,-0.0074769,0.014191
-0.06363,0.11856,-0.11276,-0.15976,0.11093,0.012665,0.0096132,0.011139
-0.072786,0.081941,-0.099336,-0.11337,0.019074,0.020294,-0.0096132,0.045624
-0.052033,-0.0044251,-0.07187,-0.10239,-0.062104,-0.17716,-0.10361,0.056611
-0.074922,0.015106,-0.08957,-0.081331,-0.056001,0.037385,0.067903,0.045319
-0.062104,-0.076143,-0.045624,-0.032807,-0.054475,0.14115,0.18387,0.085603
-0.061799,-0.065766,-0.034943,-0.14939,-0.016938,0.014496,0.081636,0.067292
-0.092927,-0.010834,-0.022736,-0.066682,-0.0080873,-0.043793,-0.12741,0.047761
-0.066987,-0.056611,0.0062562,-0.013581,-0.0074769,0.0019837,-0.32425,0.090791
0.017548,-0.10361,-0.0090028,-0.042573,0.054475,0.076448,0.22019,0.091402
0.074006,-0.10819,-0.02884,-0.06302,0.05539,0.0383,0.19028,0.053864
0.1323,-0.11154,-0.073396,-0.058442,0.018158,0.039521,-0.017548,-0.0050355
0.10697,-0.074922,-0.040436,-0.066682,0.024872,0.010529,0.053559,-0.094453
0.024872,-0.10269,-0.041657,-0.093233,0.030365,-0.015412,0.13413,-0.073396
-0.015106,-0.027924,-0.041962,-0.069734,0.027619,0.018769,0.29343,-0.035859
-0.082246,-0.011749,-0.041962,-0.022431,0.00076295,0.037995,0.26108,-0.067597
-0.13779,-0.0047303,-0.063935,-0.019074,0.010529,-0.012055,-0.61143,-0.13169
-0.13748,-0.087739,-0.10513,-0.018158,0.051118,-0.073701,-0.663,-0.070954
-0.10971,-0.071565,-0.14725,-0.15518,0.019684,-0.041352,0.22019,0.03006
-0.099641,0.099947,-0.13077,-0.25681,-0.057221,-0.0099184,0.069123,0.048066
-0.065461,0.045319,-0.10422,-0.14389,-0.066072,0.034943,0.094453,0.12375
-0.057221,0.053864,-0.059358,-0.063325,-0.0206,0.073701,0.13107,0.16678
-0.043793,0.061189,-0.058137,-0.073701,0.0013733,0.033112,0.099947,0.099031
-0.0047303,0.035248,-0.0035096,-0.058747,0.0019837,0.010529,0.14237,0.058137
0.016632,-0.11032,-0.014496,-0.03006,0.013581,-0.01297,0.1323,0.0383
0.027924,-0.17441,-0.0062562,-0.034333,0.0041199,0.020294,0.027314,0.029145
0.04654,-0.15885,0.065766,0.011139,0.02884,-0.023041,-0.17319,0.011749
0.026093,-0.093843,-0.03769,-0.02945,0.056306,-0.027314,-0.29923,-0.06363
-0.0050355,-0.066377,-0.075837,-0.22202,0.050507,0.02884,-0.093843,-0.11337
0.027619,-0.07187,-0.060273,-0.15854,0.023041,0.073396,0.2855,-0.055085
0.023346,-0.04654,-0.066377,0.083467,0.030976,0.04654,0.10849,-0.085298
-0.027619,0.0206,-0.078889,-0.0083925,0.04715,-0.019989,-0.0047303,-0.10697
-0.04715,0.009308,-0.056306,-0.12039,0.034943,-0.023957,-0.0065614,-0.020905
-0.063325,0.043488,-0.12833,-0.074311,-0.019074,-0.024872,-0.031586,0.035859
-0.081331,0.059358,-0.13504,-0.056306,-0.055085,-0.017548,-0.0062562,0.0383
-0.083772,0.00015259,-0.087129,-0.17288,-0.010529,0.023957,0.025483,0.041047
-0.10544,-0.082246,-0.059052,-0.10575,0.0035096,0.04715,0.07187,0.074617
-0.099336,0.011139,-0.022126,-0.052949,0.00076295,0.060273,0.085298,0.13046
-0.064546,0.040131,-0.034028,-0.17075,-0.051728,0.051423,0.070649,0.12924
-0.05539,0.044709,-0.086213,-0.13596,-0.045319,0.0077821,0.050202,0.05539
0.011139,-0.02182,-0.06302,-0.082246,-0.016632,0.042878,0.14328,0.031281
0.051423,-0.10391,-0.049287,-0.061799,-0.0010681,0.042573,0.14939,-0.0096132
0.033417,-0.103,-0.024262,-0.056916,0.026703,-0.058137,-0.18387,-0.01236
0.0038148,-0.11215,-0.0077821,-0.056916,0.042878,-0.034028,-0.035859,-0.0047303
0.019074,-0.11795,-0.035859,-0.02945,0.045624,0.0077821,0.32761,0.0068666
0.027619,-0.084077,-0.039216,-0.0041199,0.0383,0.034028,0.16922,-0.027008
-0.00076295,-0.081636,-0.0047303,0.06302,0.02945,0.00076295,-0.7335,-0.11154
-0.022736,-0.075837,-0.056001,-0.03769,0.057527,0.0099184,-0.39628,-0.057832
-0.022736,-0.083772,-0.06424,-0.11185,0.079194,-0.015106,0.23789,-0.010834
-0.049897,-0.043488,-0.044709,-0.10483,0.034028,-0.011749,-0.089876,-0.059663
-0.068208,0.027924,-0.11124,-0.10727,-0.0080873,0.0028992,0.035859,-0.023346
-0.089876,0.13718,-0.15152,-0.10697,-0.022431,0.0022889,0.088655,0.052338
-0.077363,0.1387,-0.10758,-0.16312,0.012665,0.014496,0.062409,0.071565
-0.093233,0.031281,-0.068513,-0.099947,-0.056001,0.019379,0.084382,0.057221
-0.074006,0.026093,-0.058442,-0.09781,-0.076753,0.030976,0.15854,0.092012
-0.019684,-0.037385,-0.05478,-0.11673,-0.030365,0.064851,0.28519,0.10636
-0.02121,-0.077363,-0.063325,-0.16129,-0.045319,-0.025483,0.19181,0.049897
0.033112,-0.17777,0.0013733,0.051423,-0.041047,-0.098116,-0.41611,-0.0028992
0.06302,-0.14572,-0.014801,0.0099184,-0.017548,-0.069734,-0.35019,-0.029145
0.010529,-0.033417,-0.048981,-0.081331,0.067292,0.033112,0.099641,-0.073091
0.029145,-0.069429,-0.025788,-0.046235,0.066377,0.36393,0.10178,-0.051118
-0.0028992,-0.086519,-0.017853,-0.078889,0.1326,0.037079,-0.022431,-0.059663
-0.025788,-0.043488,-0.02884,-0.12924,0.10056,-0.17075,0.0013733,-0.04654
-0.039216,-0.023651,-0.033112,-0.067292,0.04593,-0.018769,0.041047,0.005951
-0.042573,-0.052033,-0.026703,-0.035554,0.015717,-0.031891,0.033722,0.014191
-0.043183,-0.11337,-0.057221,-0.055085,-0.002594,-0.022126,0.026703,0.019989
-0.077974,-0.018463,-0.13626,-0.090486,-0.011139,-0.0071717,-0.017548,0.021515
-0.090791,0.082246,-0.14878,-0.11337,-0.019379,0.013275,0.0074769,0.06302
-0.060578,0.044709,-0.10239,-0.095674,-0.040742,0.027924,0.08072,0.10666
-0.073701,0.039826,-0.058137,-0.095674,-0.038605,0.035248,0.12009,0.090486
-0.073396,0.076143,-0.10269,-0.10727,-0.018158,0.039216,0.15518,0.089876
-0.064546,0.035248,-0.057832,-0.11673,-0.016327,0.033417,0.15213,0.094759
-0.050507,-0.0038148,-0.010834,-0.075837,-0.035248,0.034943,0.02182,0.063935
-0.029755,-0.08072,-0.01297,-0.081025,-0.023041,-0.013275,-0.036469,0.036164
0.016632,-0.1265,-0.014191,-0.16922,0.0065614,-0.12345,-0.028534,0.011139
0.069734,-0.30167,0.019989,0.28672,0.026703,0.00015259,-0.1033,-0.074617
0.031281,-0.25589,-0.04715,-0.103,0.067597,0.10941,0.14145,-0.11948
0.043183,-0.0062562,-0.074006,-0.091707,0.067597,0.13352,0.30686,-0.076753
0.033722,0.035554,-0.058137,-0.035248,0.042267,0.0044251,-0.079194,-0.059052
0.03006,0.0032044,-0.053864,-0.052338,0.088655,-0.18784,-0.55619,-0.081025
0.024262,-0.011749,-0.050813,-0.067597,0.058137,-0.043793,-0.34134,-0.083467
0.024872,-0.068513,-0.061189,-0.080415,0.015717,0.04715,0.25772,-0.0074769
-0.035554,-0.062409,-0.084688,-0.13443,-0.022431,0.01297,0.067292,0.0090028
-0.1207,0.080415,-0.10697,-0.035248,-0.041657,0.026093,-0.0022889,-0.0035096
-0.11948,0.069123,-0.099031,-0.074617,-0.009308,0.030365,0.039521,0.037995
-0.069429,0.014496,-0.068208,-0.27604,-0.0090028,0.061494,0.072175,0.10422
-0.062715,0.005951,-0.07126,-0.12314,-0.023041,0.020905,0.06302,0.076753
-0.070649,0.0035096,-0.0972,-0.048981,-0.053864,0.023346,0.04715,0.062104
-0.070649,0.017548,-0.075837,-0.069429,-0.0083925,-0.0038148,-0.081636,0.062409
-0.054475,-0.0038148,-0.031891,-0.019684,-0.011444,0.0044251,0.05539,0.035554
-0.028229,-0.080415,0.014191,0.033112,-0.081941,0.026398,0.081941,0.0065614
0.031891,-0.13016,-0.045014,-0.20951,0.062104,-0.015717,-0.017548,0.034028
0.026093,-0.098116,-0.041962,-0.11856,0.12802,0.0090028,0.024872,0.055085
-0.032502,-0.082856,-0.032807,-0.031586,-0.0032044,0.040131,0.059663,0.037995
0.0032044,-0.056001,-0.015717,0.039216,0.016632,-0.011444,0.013275,0.059663
0.038911,-0.01297,-0.0206,0.0068666,0.082246,-0.00015259,-0.025483,0.005951
0.010529,-0.11337,-0.030976,-0.083162,0.043183,0.029145,0.033417,-0.048371
-0.051118,-0.16953,-0.035859,-0.1091,0.031891,-0.0010681,0.026703,-0.093233
-0.10208,-0.005951,-0.11276,-0.13107,0.071565,0.0206,-0.0206,-0.070039
-0.17105,0.13779,-0.11521,-0.10971,0.041047,0.037995,0.022736,-0.040436
-0.11795,0.10422,-0.103,-0.08072,-0.039521,0.034943,0.063935,0.0077821
-0.053559,0.054475,-0.098421,-0.091096,-0.075837,0.024872,0.051118,0.058137
-0.029755,0.053254,-0.093233,-0.14176,-0.097505,-0.0071717,-0.01236,0.06363
0.0016785,-0.027619,-0.072786,-0.13169,-0.041047,-0.013275,-0.018463,0.073396
0.045014,-0.083772,-0.024567,-0.063325,0.012055,0.0083925,-0.023041,0.058137
0.067597,-0.15,-0.066682,-0.01236,-0.026703,-0.017243,-0.02121,0.046235
0.045624,-0.17868,-0.04654,-0.095674,0.037995,0.051423,0.072786,-0.0028992
0.0068666,-0.14298,-0.014191,-0.089876,0.025483,0.058747,0.11093,-0.034638
-0.0032044,-0.070649,-0.016632,-0.18357,-0.025177,0.013886,0.015717,-0.0062562
0.01297,-0.067903,0.0019837,0.13901,0.044099,-0.045624,0.039521,-0.00045777
-0.0074769,0.035859,-0.041047,0.0206,0.084688,-0.10575,-0.070954,-0.052949
-0.010834,0.013886,-0.034333,-0.11521,0.023346,0.031281,0.32029,-0.066072
0.016632,-0.038605,-0.096895,-0.0090028,-0.096284,0.10544,0.37552,-0.036469
-0.051728,0.010224,-0.07126,-0.036774,0.091402,-0.065766,-0.54887,-0.12406
-0.018769,-0.026093,-0.06302,-0.19211,0.21897,-0.03769,-0.8101,-0.0028992
-0.059968,-0.035859,-0.062104,-0.20676,0.02945,0.024262,0.1561,0.035859
-0.081025,-0.002594,-0.12711,-0.14694,-0.04715,-0.018769,0.09659,-0.010529
-0.069429,0.043488,-0.08957,-0.099947,-0.04654,0.0090028,0.16312,0.065766
-0.034333,0.0086976,-0.088045,-0.084382,-0.08011,0.037079,0.092927,0.089876
-0.048676,0.010224,-0.092317,-0.046845,-0.065156,0.034638,0.053254,0.066072
-0.056611,-0.016632,-0.06302,-0.018158,-0.032502,0.015412,0.05417,0.056611
-0.063935,-0.022126,-0.040436,-0.0972,0.0086976,0.013886,0.086824,0.076448
-0.015717,-0.031586,0.036164,0.17868,0.034333,-0.009308,0.024872,0.051728
-0.0383,-0.0028992,-0.095979,-0.066682,0.051118,-0.031891,-0.10391,0.03006
-0.031891,-0.039521,-0.070954,-0.11582,0.036164,-0.031281,-0.063935,0.034028
0.0019837,-0.050813,-0.048371,-0.12863,-0.017243,0.044099,-0.029755,0.025483
0.0074769,-0.11551,0.048676,-0.071565,0.0053407,0.020294,0.059968,-0.032807
0.013581,-0.29191,0.049897,0.00045777,0.06363,0.015412,0.075837,-0.02945
0.027619,-0.28214,-0.016938,-0.11704,0.056306,0.12009,0.46586,-0.0062562
0.013275,-0.028534,-0.11032,-0.19577,0.034028,0.099641,0.73106,-0.077974
-0.017243,0.066072,-0.090791,-0.058747,0.037995,0.0206,0.30869,-0.091707
-0.06302,0.08072,-0.076143,0.026703,0.03006,-0.10605,-0.7924,-0.0972
-0.064851,-0.022126,-0.062715,-0.084993,0.013886,-0.10147,-1.2615,0.070649
-0.11765,0.13413,-0.15122,-0.22324,0.0065614,0.093233,0.5098,0.14939
-0.11795,0.093233,-0.1146,-0.12161,-0.059358,0.06363,0.57908,0.08835
-0.08957,0.0041199,-0.07187,-0.015106,-0.10117,0.019989,-0.11002,0.066072
-0.087129,-0.022126,-0.06424,-0.025483,-0.053254,0.027008,-0.15366,0.022736
-0.051728,-0.039826,-0.074311,-0.17655,-0.031281,-0.017243,-0.15885,0.06424
0.014191,-0.13443,0.027314,-0.00076295,0.023041,-0.056306,-0.18723,0.066377
-0.002594,-0.056306,-0.059968,-0.035554,0.088655,0.020905,0.27939,0.031281
0.020905,0.028229,-0.085908,-0.069734,0.092622,-0.010834,0.0383,-0.0022889
0.0096132,0.053864,-0.06424,-0.099031,0.0065614,-0.031891,-0.066072,-0.0013733
-0.0010681,0.0032044,-0.022431,-0.0795,-0.024567,0.045624,0.05417,-0.040742
0.027314,-0.17075,0.0062562,-0.049592,0.0032044,0.070954,0.12589,-0.037385
0.028229,-0.20798,0.0071717,-0.030671,0.039521,0.016022,0.019989,-0.065156
0.0010681,-0.13626,-0.031891,-0.033112,0.062409,-0.0099184,-0.0096132,-0.049592
0.005951,-0.12253,-0.044709,-0.060273,0.034028,0.044099,0.0041199,-0.024262
0.016632,-0.077974,-0.103,-0.091402,0.025177,0.033112,0.062409,-0.019379
0.0032044,0.0080873,-0.097505,-0.085603,0.02182,0.014496,0.10452,0.010834
-0.027008,0.096284,-0.078584,-0.10666,0.016022,0.01297,0.025177,-0.013275
-0.062715,0.12619,-0.088655,-0.11734,0.013886,-0.039521,-0.092927,-0.034638
-0.075837,-0.081331,-0.056916,-0.11765,-0.010834,-0.15,-0.12802,-0.020294
-0.082246,0.0062562,-0.072786,-0.073396,-0.032502,-0.038911,-0.037079,0.044099
-0.070649,0.043183,-0.082551,-0.068208,-0.041352,0.033417,0.078584,0.096895
-0.067292,0.068208,-0.094148,-0.092927,-0.033417,0.02945,0.12619,0.11185
-0.056916,0.0047303,-0.063935,-0.12345,0.0013733,0.041657,0.084688,0.083467
-0.044709,-0.057832,-0.066682,-0.11521,0.037079,0.063325,0.049287,0.08072
-0.019074,-0.060883,-0.04593,-0.056611,-0.023346,0.082551,0.059968,0.073701
0.010529,-0.11948,0.0071717,-0.042573,-0.0019837,0.041047,0.069734,0.028229
0.013886,-0.10025,-0.026398,-0.032502,0.051728,-0.023957,0.02182,-0.020294
0.027008,-0.11154,-0.012055,-0.034943,0.051423,-0.02884,-0.027008,-0.02945
0.027314,-0.098116,-0.015412,-0.059663,0.053559,-0.010834,-0.13169,-0.081331
0.023041,-0.11429,-0.019684,-0.056916,0.052338,0.014191,-0.009308,-0.11307
0.011444,-0.070344,-0.065766,-0.059663,0.011139,0.040131,0.069429,-0.11704
-0.012055,-0.028534,-0.084688,-0.078889,0.0047303,0.031586,-0.092927,-0.08011
-0.050813,0.011139,-0.11337,-0.069734,-0.0071717,0.037995,-0.0041199,-0.026398
-0.083467,0.0383,-0.063325,-0.060578,-0.015106,0.0062562,0.092622,0.011749
-0.1033,0.028229,-0.056611,-0.084993,-0.021515,-0.034028,0.0016785,0.049287
-0.11032,0.052033,-0.078889,-0.14054,0.049897,-0.071565,-0.16403,0.089876
-0.099031,0.03769,-0.098116,-0.11521,0.045624,0.016327,-0.026703,0.098421
-0.078279,0.043183,-0.099336,-0.10544,-0.057527,0.079805,0.055085,0.086213
-0.041962,0.049287,-0.079194,-0.084382,-0.070039,0.056306,0.045624,0.085908
0.009308,-0.066682,-0.074006,-0.12314,-0.043488,0.010834,0.043488,0.092012
0.02884,-0.11887,-0.014801,-0.069734,0.0016785,-0.068513,0.0074769,0.034028
0.045624,-0.12558,0.019989,-0.032807,0.011444,-0.037385,-0.009308,-0.012665
0.055085,-0.10452,-0.016632,-0.031586,0.02182,0.0053407,-0.052949,-0.047456
0.016938,-0.088655,-0.020294,-0.031281,0.043183,-0.083467,-0.091096,-0.090791
0.021515,-0.084382,-0.0090028,-0.041352,0.035859,-0.068513,0.02945,-0.059052
0.011444,-0.10056,-0.050507,-0.19791,0.039216,-0.012055,0.039826,-0.041962
0.020905,-0.10422,-0.032807,0.15702,0.023651,0.087129,0.019074,-0.035248
-0.03769,-0.051728,-0.070039,-0.079194,0.069123,0.3563,0.012055,-0.033112
-0.061494,-0.020294,-0.095369,-0.098421,0.069123,0.10758,0.018769,-0.0080873
-0.11765,0.036164,-0.090181,0.0053407,-0.0795,-0.15366,0.044404,0.049897
-0.10605,0.031891,-0.10849,-0.21988,0.0032044,-0.050202,0.011444,0.070039
-0.092012,0.073091,-0.1387,-0.20493,0.061494,0.03006,0.078279,0.078279
-0.059968,0.034638,-0.047761,-0.1326,-0.0065614,0.046235,0.061494,0.09781
-0.040436,0.010224,-0.04593,-0.13046,-0.050507,0.018769,0.038911,0.10056
-0.035554,0.030671,-0.13504,-0.10452,-0.051118,-0.009308,0.034943,0.059968
-0.035248,0.069734,-0.081025,-0.05539,-0.0383,0.016022,0.017853,-0.015412
-0.022431,0.011444,-0.051728,-0.040436,-0.043793,-0.0028992,-0.037385,-0.041657
-0.002594,-0.093538,0.024872,-0.023041,0.0047303,-0.024872,-0.059052,-0.023346
-0.0068666,-0.072175,-0.034028,-0.04654,0.054475,-0.023346,0.077363,0.012055
-0.031281,-0.087434,-0.017853,-0.034638,0.047761,-0.0047303,0.1091,0.023041
-0.011444,-0.16037,0.045014,-0.014496,0.04593,-0.034028,-0.067597,-0.034333
0.00076295,-0.29465,0.015412,-0.031281,0.06424,-0.02945,-0.27176,-0.044404
0.005951,-0.22416,-0.027619,-0.042573,0.070649,0.023346,0.091402,0.011444
-0.0010681,-0.035554,-0.090181,-0.16464,0.068208,0.012055,0.062409,0.035248
-0.002594,0.065461,-0.087129,0.1915,0.050202,0.035248,0.027619,0.02182
-0.057221,0.083467,-0.092317,-0.20188,0.005951,0.05539,0.086824,0.0050355
-0.041657,0.0083925,-0.090181,-0.15274,-0.042573,0.075837,0.050507,0.032807
-0.0080873,-0.037385,-0.10849,-0.059052,-0.059052,0.060883,0.052949,0.034028
-0.039216,0.03006,-0.12161,-0.1088,-0.0083925,-0.029145,-0.0053407,0.0028992
-0.065461,0.04593,-0.094453,-0.10239,-0.018158,-0.049592,-0.084077,-0.002594
-0.077363,0.081331,-0.092927,-0.10056,-0.04715,0.0080873,-0.08957,0.016022
-0.04593,0.059968,-0.068208,-0.10147,-0.044404,0.044404,0.35111,0.081331
-0.051728,0.011444,-0.041962,-0.06363,-0.036469,0.011139,0.46952,0.054475
-0.049592,-0.021515,-0.032502,-0.080415,-0.0010681,-0.031586,-0.16983,-0.0032044
-0.015106,-0.037995,-0.018463,-0.017243,0.026093,-0.05417,-0.96666,-0.010529
0.041657,-0.040436,-0.029145,-0.061494,0.072175,0.051423,0.10422,0.059052
0.0090028,-0.082551,-0.018158,-0.13107,0.11582,0.067292,0.13199,-0.034333
0.0099184,-0.20615,-0.011749,-0.082856,0.013581,-0.011139,-0.018463,-0.062104
0.030365,-0.2208,0.0032044,0.067597,-0.02884,-0.018769,0.005951,-0.035248
0.024262,-0.20615,-0.013886,-0.051118,0.05539,-0.027314,0.0056458,-0.092927
0.015106,-0.11887,-0.028534,0.0099184,0.12222,0.0080873,0.11429,-0.081331
0.037385,-0.1207,-0.067903,-0.024567,0.07126,0.075532,0.25193,-0.039521
-0.022431,0.048371,-0.11643,-0.11948,0.042267,0.070649,0.25711,-0.074922
-0.047456,0.094148,-0.11704,-0.044709,-0.022431,0.030671,0.22995,-0.016938
-0.067597,0.090486,-0.10269,-0.15488,-0.04715,-0.0071717,-0.13565,0.053864
-0.08957,0.071565,-0.079194,-0.24979,-0.049897,0.066987,0.043793,0.072175
-0.15579,0.0972,-0.078889,-0.10178,0.0019837,-0.039826,-0.46036,0.066682
-0.14328,0.090181,-0.12222,-0.12802,-0.030976,-0.15213,-0.68162,0.12497
-0.10391,0.055085,-0.066377,-0.089265,-0.02945,-0.2153,0.31144,0.18296
-0.12375,0.081636,-0.01297,-0.02945,0.012665,0.0013733,0.030976,0.088045
-0.12161,0.029755,-0.07187,-0.089265,-0.021515,0.15213,0.24033,0.12772
-0.062715,-0.10666,-0.030365,-0.071565,-0.049287,0.11185,0.047456,0.062409
0.027619,-0.16037,-0.025483,-0.065156,-0.034638,0.069429,-0.048371,0.043488
0.079194,-0.19944,0.022126,-0.024567,0.023041,0.042267,0.099031,-0.009308
0.15091,-0.19883,-0.026398,0.0032044,0.05417,0.041047,0.099947,-0.062715
0.12985,-0.20005,-0.052949,0.0016785,0.085908,0.0041199,0.041047,-0.16281
0.07248,-0.13626,-0.010834,-0.04654,0.073091,-0.019684,0.040131,-0.15824
0.035859,-0.084993,-0.0047303,-0.10788,0.0071717,-0.018769,0.031281,-0.077058
0.019684,-0.063935,-0.056611,-0.095674,0.025483,-0.020905,-0.10422,-0.012665
-0.00045777,-0.025788,-0.12985,-0.11185,0.046845,0.023957,-0.074006,0.0086976
-0.052644,0.046235,-0.11856,-0.12284,0.0077821,0.023346,0.058442,0.036774
-0.11002,0.084382,-0.078889,-0.087129,-0.030365,-0.011444,0.009308,0.065461
-0.1445,0.11063,-0.11063,-0.11643,-0.053559,0.0041199,0.071565,0.06363
-0.13199,0.11765,-0.087434,-0.10758,-0.069123,0.028229,0.033112,0.042267
-0.089876,0.065461,-0.091402,-0.095674,-0.060883,0.036469,-0.027619,0.044099
-0.03769,-0.0035096,-0.063935,-0.076753,-0.0206,0.0099184,0.09659,0.05539
-0.01236,-0.036469,-0.052949,-0.065461,0.015412,-0.041657,0.10483,0.063935
0.044099,-0.10483,-0.0206,-0.0206,0.019379,0.0071717,0.069429,0.087434
0.02945,-0.12039,0.011444,-0.059052,0.027314,-0.0071717,-0.19821,0.019074
0.030365,-0.11612,-0.0035096,-0.052338,0.016632,0.011444,-0.14481,-0.026398
0.037995,-0.10941,-0.02182,-0.099641,0.055085,0.085298,0.29648,-0.099031
0.023651,-0.080415,-0.049897,-0.066377,0.088045,0.028534,0.050507,-0.12802
-0.00015259,-0.058137,-0.049287,-0.051423,0.049592,-0.041962,-0.075227,-0.076143
-0.017243,-0.058137,-0.064851,-0.066682,0.042878,-0.077058,-0.43015,-0.048981
-0.056001,-0.0062562,-0.073091,-0.12314,0.019074,0.025483,0.0038148,0.0096132
-0.072786,0.0086976,-0.11612,-0.11032,-0.0035096,0.034333,0.22019,0.056001
-0.11063,0.038605,-0.094453,-0.086824,-0.016327,-0.00015259,-0.0083925,0.055695
-0.04715,-0.030976,-0.052338,-0.060273,-0.024872,0.015412,0.045624,0.075837
-0.099336,0.076753,-0.12039,-0.01236,-0.020294,-0.0099184,0.026703,0.036164
-0.10452,0.050202,-0.017853,0.028534,-0.051118,0.011139,0.025483,0.023346
-0.083467,0.0096132,-0.070649,-0.17899,-0.051728,0.018769,0.024262,0.076448
-0.044709,-0.18265,-0.013581,-0.16739,0.08011,-0.0053407,-0.0019837,0.039521
-0.022126,-0.19638,-0.064546,-0.047761,0.065766,0.048981,0.10056,0.037385
0.019379,-0.054475,-0.048676,-0.12711,-0.035859,0.017243,0.1503,0.020905
0.0038148,-0.057832,0.019379,-0.042878,-0.032807,-0.017853,0.041962,0.039521
0.026093,-0.087434,-0.016938,-0.064851,0.0068666,-0.027619,-0.23972,-0.0090028
0.05539,-0.061799,-0.051728,-0.051728,0.0053407,0.0044251,-0.25864,-0.053864
-0.00015259,0.019379,-0.076753,0.0028992,0.011444,0.020294,0.10544,-0.075532
0.0032044,-0.012665,-0.04715,-0.042878,0.077668,0.0041199,0.014801,-0.032807
-0.014801,0.0065614,-0.036774,-0.15274,0.11978,0.011139,0.045319,0.0074769
-0.010224,0.035859,-0.059358,-0.094453,0.044099,0.016327,0.05539,-0.034943
0.032807,-0.043488,-0.092317,-0.048981,0.011139,0.012055,0.012055,-0.064851
-0.016938,-0.02884,-0.077363,-0.077058,0.019379,0.012055,-0.010529,-0.064546
-0.041657,-0.10636,-0.056916,-0.10178,0.0096132,0.020294,0.016938,-0.018463
-0.048981,-0.11032,-0.11429,-0.093233,-0.033722,0.011139,0.023346,0.010529
-0.081025,0.02121,-0.12161,-0.1033,-0.042878,0.00045777,0.041047,0.0035096
-0.10025,0.13321,-0.099641,-0.11093,-0.039216,0.019074,0.043183,0.095369
-0.083162,0.10422,-0.075227,-0.086519,-0.041962,0.016632,-0.048981,0.10086
-0.094148,0.049592,-0.073091,-0.10391,-0.029755,-0.017853,-0.0013733,0.085603
-0.072786,-0.0068666,-0.074922,-0.20615,-0.02884,0.014801,-0.039826,0.054475
-0.028534,-0.073701,-0.024567,0.23117,-0.032197,0.079805,0.078584,0.050507
-0.041352,-0.098421,0.0077821,-0.14969,0.025788,-0.005951,0.082246,0.020905
0.021515,-0.19974,0.019379,-0.077058,0.0074769,-0.059052,0.072175,0.069123
0.034028,-0.14359,-0.015412,-0.0035096,-0.037079,-0.0013733,0.07187,0.060578
0.034943,-0.11063,-0.018158,-0.033722,0.06363,-0.010834,0.19181,0.0065614
0.033722,-0.098421,-0.044709,-0.040131,0.070039,0.27359,0.39445,-0.0056458
0.037995,-0.092317,-0.049897,-0.11063,0.036164,0.25132,0.18021,-0.082856
-0.0086976,-0.036164,-0.061189,-0.215,0.055085,-0.2443,-0.78874,-0.14755
-0.015412,-0.052949,-0.053254,0.075532,0.094453,-0.12467,-0.67277,-0.04593
-0.035248,-0.0035096,-0.092317,-0.0383,0.089265,-0.011444,0.24125,0.0047303
-0.075837,0.094148,-0.11856,-0.21378,0.0047303,-0.037385,0.075227,0.030976
-0.077668,0.12039,-0.10971,-0.092317,-0.074617,0.015412,0.07248,0.069734
-0.07187,0.090181,-0.10636,-0.14359,-0.04715,-0.0086976,0.022126,0.038911
-0.064851,0.071565,-0.078279,-0.13504,-0.035554,-0.011749,-0.0047303,0.039521
-0.042878,0.0080873,-0.072175,-0.095064,-0.063325,0.026703,0.026093,0.051728
-0.042573,-0.039826,-0.067903,-0.070649,-0.074617,0.021515,0.069123,0.067292
-0.053254,-0.056001,-0.016327,-0.018769,-0.048371,0.032807,0.15335,0.050507
-0.057527,-0.099641,-0.0035096,-0.0019837,0.034943,0.025483,0.11612,0.023346
-0.021515,-0.081636,-0.030671,-0.040131,0.10575,-0.033112,-0.041657,0.0050355
0.0383,-0.13138,-0.024262,-0.068208,0.10239,-0.010224,-0.038911,0.0016785
0.031891,-0.077668,-0.022431,-0.060578,0.018158,0.019379,0.0013733,-0.037079
-0.0096132,-0.082551,-0.029145,-0.055695,0.0096132,0.0090028,-0.0010681,-0.084382
0.0013733,-0.14694,-0.04654,-0.055085,0.015412,0.015412,0.0090028,-0.064546
-0.01236,-0.035859,-0.0795,-0.083772,0.014801,0.048066,0.050507,-0.040436
-0.028229,-0.048066,-0.064851,-0.089876,0.019074,0.064546,0.086213,-0.0047303
-0.017243,-0.061799,-0.052949,-0.078279,-0.0047303,0.064546,0.08011,0.03769
0.0050355,-0.062409,-0.055085,0.0096132,-0.0022889,0.041047,0.011139,0.02945
-0.056916,0.044404,-0.12955,-0.18997,0.046235,-0.090181,-0.10513,-0.0028992
-0.10544,0.098116,-0.13107,-0.14572,0.030365,-0.2034,-0.14694,-0.0032044
-0.10147,0.088045,-0.095369,-0.10391,-0.053254,0.0050355,0.0090028,0.023957
-0.094453,0.040742,-0.078584,-0.099031,-0.054475,0.057221,0.28031,0.057527
-0.04654,-0.0080873,-0.039216,-0.078889,-0.053559,0.080415,0.42954,0.089265
-0.010224,-0.052644,-0.034333,-0.033722,-0.022736,0.081025,0.37217,0.098726
0.0016785,-0.077668,-0.016938,-0.0013733,0.031586,-0.057527,-0.28672,0.019989
0.016632,-0.096895,-0.034028,-0.032197,0.018158,-0.06424,-0.84611,0.00076295
0.025483,-0.10544,-0.028229,-0.077363,-0.0028992,0.0206,0.0086976,0.013581
0.017853,-0.10208,-0.021515,-0.091402,0.020905,0.011444,-0.40696,-0.081636
0.030976,-0.11856,0.018158,-0.058137,0.02182,0.12314,0.26993,-0.04654
0.048981,-0.12772,0.00045777,-0.037385,0.042267,0.043488,0.29374,-0.072175
0.01297,-0.074617,-0.039826,0.0019837,0.077668,-0.027619,0.017853,-0.087129
-0.038911,-0.034028,-0.07126,-0.012665,0.051423,-0.0099184,-0.010224,-0.087739
-0.055695,-0.016632,-0.086213,-0.21317,-0.0035096,0.024567,0.092927,0.002594
-0.11063,0.090486,-0.1445,-0.1735,-0.017548,-0.017548,0.20401,0.075837
-0.10605,0.094759,-0.13169,-0.12741,0.021515,0.00015259,0.23545,0.11978
-0.075837,0.085908,-0.12741,-0.051118,0.010529,0.031281,-0.12192,0.15518
-0.039521,0.017853,-0.10025,-0.075532,-0.043488,0.037385,-0.49729,0.095674
-0.012665,-0.098421,-0.01236,-0.11276,-0.073701,0.030365,0.063935,0.066377
-0.013275,-0.21225,0.023651,-0.10575,0.011749,-0.082246,0.043488,0.02945
-0.0035096,-0.10758,0.0044251,-0.044099,0.025177,-0.022736,0.0053407,0.029145
-0.015106,0.028534,-0.070039,-0.050813,0.015106,-0.013581,0.009308,0.019684
-0.032502,0.048371,-0.092012,-0.045319,0.025788,-0.051118,-0.020905,-0.028229
-0.042878,0.0074769,-0.068208,-0.069123,0.013275,-0.0050355,0.005951,-0.035248
0.0013733,-0.11032,-0.029755,-0.10239,-0.0035096,0.076448,0.1503,-0.023651
0.024262,-0.098116,-0.045624,-0.086519,0.0032044,0.05478,0.11521,-0.036774
-0.01297,-0.056611,-0.060578,-0.069429,0.016632,0.047456,0.041657,-0.077974
-0.002594,-0.078584,-0.032197,-0.049592,0.017548,0.035554,-0.053864,-0.08957
0.023041,-0.082551,0.0013733,-0.017548,0.025788,0.045319,-0.16709,-0.062104
-0.00076295,-0.027619,-0.055695,0.02884,0.048371,-0.12772,-0.11032,-0.060883
-0.035859,0.021515,-0.10666,-0.037079,0.060273,-0.057527,0.15702,-0.053559
-0.071565,0.0041199,-0.099031,-0.12558,0.051423,0.10666,0.34531,-0.039826
-0.072175,-0.030976,-0.056611,-0.13382,0.014801,-0.031891,0.092927,0.069734
-0.085908,-0.1503,-0.081331,-0.1207,-0.0086976,-0.023651,-0.34684,0.12863
-0.10422,-0.002594,-0.10636,-0.13321,-0.02884,0.02884,-0.18051,0.15946
-0.092012,0.12039,-0.096895,-0.18509,-0.047456,-0.0016785,-0.031586,0.18082
-0.081331,0.12558,-0.095979,-0.11276,-0.065461,0.058137,0.27359,0.047456
-0.067903,0.066682,-0.05478,-0.048981,-0.051728,0.010224,0.13291,-0.010224
-0.022736,-0.016938,0.0077821,0.050202,-0.027619,0.048066,0.086213,0.064546
-0.013581,-0.0096132,-0.055085,-0.031586,0.015106,0.017243,-0.011444,0.002594
0.025483,-0.11643,-0.029145,-0.11063,0.0013733,-0.0086976,0.005951,0.019684
0.047761,-0.099641,-0.041047,-0.096895,0.031891,0.038911,0.027619,0.010834
0.04593,-0.10147,-0.023041,-0.060883,0.097505,0.05478,-0.071565,-0.058747
0.073396,-0.1387,0.019989,0.0013733,0.041962,0.0083925,-0.032502,-0.055085
0.082246,-0.20768,0.056001,-0.060883,0.042878,-0.015412,0.11093,-0.12619
0.039216,-0.15091,-0.099641,-0.073091,0.069429,0.010834,0.17624,-0.13657
0.009308,-0.053559,-0.090791,-0.041352,0.043183,-0.009308,-0.094453,-0.11612
-0.060883,0.046235,-0.086519,-0.083772,0.0077821,-0.078584,-0.42344,-0.069734
-0.10178,0.094148,-0.11337,-0.076448,-0.0047303,-0.056306,-0.32792,0.022126
-0.073701,0.045319,-0.090181,-0.11582,0.061799,0.031586,0.33707,0.10819
-0.10178,0.078279,-0.10849,-0.14206,0.035554,0.020905,0.32242,0.091402
-0.10697,0.065156,-0.090791,-0.13687,-0.067292,0.022736,0.019684,0.089265
-0.10605,0.033112,-0.084077,-0.08835,-0.12345,0.051728,-0.10117,0.10544
-0.10239,0.017243,-0.078279,-0.065461,-0.085603,-0.013886,-0.30106,0.097505
-0.077363,-0.034028,-0.046845,-0.12375,0.013886,-0.0077821,0.26505,0.1268
-0.049287,-0.067597,-0.048981,-0.056306,0.010529,0.0053407,0.24033,0.10086
0.031281,-0.12253,0.012055,-0.010529,0.0013733,0.040131,-0.093538,0.059968
0.046235,-0.14176,-0.005951,-0.038911,0.027924,0.077058,-0.024872,-0.010834
0.052949,-0.12009,-0.030365,-0.05417,0.029755,0.024262,0.058137,-0.053254
0.042267,-0.11337,-0.02182,-0.064851,0.050507,-0.0080873,0.059052,-0.083162
0.018769,-0.098116,-0.034333,-0.056611,0.049287,-0.02121,0.20035,-0.076143
0.067903,-0.11093,-0.040131,-0.045319,0.015412,0.02945,0.2681,-0.012055
0.041352,-0.088655,-0.037995,-0.050813,0.047761,0.0041199,-0.18021,-0.098116
-0.018463,-0.0383,-0.060578,-0.073091,0.065156,-0.088045,-0.99504,-0.17014
-0.062104,0.0099184,-0.098421,-0.095674,0.02945,-0.036164,0.0019837,-0.04593
-0.10758,0.044099,-0.10513,-0.10483,0.011444,0.002594,0.27115,0.0065614
-0.12558,0.06363,-0.098116,-0.1088,-0.0086976,0.013275,0.041352,0.087434
-0.15,0.078584,-0.10239,-0.21683,-0.030671,0.026093,0.071565,0.12619
-0.10544,0.031281,-0.06302,0.035554,-0.042573,0.039216,0.21164,0.11215
-0.10025,0.063325,-0.098726,-0.073396,-0.0206,0.019074,0.30472,0.091402
-0.056001,0.047456,-0.069123,-0.16342,-0.010834,-0.012665,0.066682,0.053254
0.010529,-0.024262,-0.055085,-0.068208,-0.095674,0.0053407,-0.33005,0.055695
0.04593,-0.072175,-0.039216,-0.068208,-0.031586,0.066682,-0.20737,-0.0050355
0.041962,-0.10697,-0.028534,-0.17685,-0.0068666,0.099031,0.28397,-0.030976
0.031281,-0.12192,-0.0068666,0.11124,-0.0090028,0.048371,0.16556,-0.034638
0.065156,-0.19486,-0.012055,0.012055,0.010834,0.058137,0.27207,-0.010529
0.04593,-0.12192,-0.029145,-0.17929,0.059052,-0.0010681,-0.030671,-0.053864
0.025483,-0.020294,-0.042267,-0.00015259,0.074311,-0.029755,-0.53819,-0.071565
-0.0096132,-0.075532,-0.030671,0.019989,0.081331,-0.077668,-0.011139,-0.035554
-0.019379,-0.089876,-0.0795,-0.11643,0.05539,-0.07248,0.044099,-0.017548
-0.028534,0.002594,-0.083467,-0.13291,0.016022,0.055695,0.042878,-0.018769
-0.0795,0.042267,-0.038605,-0.099031,0.052949,0.016938,0.15702,-0.00015259
-0.0972,0.10636,-0.078889,-0.082246,0.081636,0.031586,0.14633,0.049897
-0.085603,0.087739,-0.10666,-0.065766,0.0056458,-0.014801,0.011139,0.073701
-0.065766,0.055695,-0.12253,-0.10056,-0.0086976,-0.065766,-0.37186,0.038911
-0.066072,0.018158,-0.096895,-0.075532,-0.017243,0.0047303,-0.0022889,0.043793
-0.048371,-0.056916,-0.077974,-0.16129,-0.063935,0.012055,0.092012,0.060273
-0.016938,-0.22904,-0.0013733,-0.15976,-0.062104,0.016938,0.037995,0.06363
0.0028992,-0.25498,-0.011444,-0.023041,-0.058747,0.023041,0.070344,0.030365
0.034028,-0.048066,-0.044709,-0.11582,0.0099184,0.026703,0.022126,0.018769
0.011139,-0.037385,-0.041962,-0.052338,0.056306,-0.005951,0.019989,0.0056458
0.0090028,-0.030976,-0.070954,-0.044099,0.016938,0.011444,0.0086976,-0.052033
-0.0065614,0.0010681,-0.040131,-0.048371,0.010834,0.019989,0.0053407,-0.064851
-0.0032044,-0.049897,-0.026703,0.026703,0.0016785,0.031586,0.027314,-0.032502
0.019379,-0.19608,0.070649,0.039521,0.041962,0.026093,0.041352,-0.016327
0.015106,-0.082856,-0.027008,-0.13596,0.078584,-0.0050355,-0.0206,-0.059968
-0.041657,0.020294,-0.084077,-0.10758,0.078584,-0.043488,-0.019684,-0.063935
-0.070039,0.015106,-0.085908,-0.04654,0.034943,-0.0032044,0.044404,-0.055085
-0.069123,0.043793,-0.12131,-0.026093,0.0096132,0.019379,-0.018463,-0.024872
-0.089265,-0.015717,-0.091096,-0.22812,-0.031281,0.009308,0.013275,0.018158
-0.11978,0.025177,-0.12131,-0.21897,-0.051118,0.01297,0.22477,0.055695
-0.10422,0.10452,-0.10269,-0.081331,-0.055695,0.034333,0.36728,0.11032
-0.1146,0.096284,-0.068513,-0.091402,-0.067597,0.032502,0.17624,0.13382
-0.097505,0.061189,-0.076753,-0.083467,-0.014801,-0.043183,-0.82872,0.093538
-0.092317,0.052033,-0.068818,-0.074311,-0.015106,0.0090028,-0.28794,0.15549
-0.05539,-0.005951,-0.036774,-0.06302,-0.01297,0.031281,0.42252,0.11795
-0.021515,-0.062104,-0.057832,-0.009308,-0.022431,0.020294,0.0090028,0.073701
-0.01297,-0.17807,-0.022431,0.0032044,-0.018769,0.038605,-0.00045777,-0.057832
0.0041199,-0.10239,0.0074769,-0.060578,0.013275,0.045014,0.10697,-0.10513
0.047456,-0.13382,-0.012665,-0.10117,0.13107,0.023957,0.17929,-0.015106
0.086213,-0.12375,-0.025483,-0.074617,0.11154,-0.010224,-0.091707,-0.039826
0.065766,-0.086519,-0.031891,-0.076753,0.049897,0.038605,-0.011444,-0.083467
0.065766,-0.084993,-0.067903,-0.06424,0.027008,0.018463,0.17166,-0.03769
0.054475,-0.071565,-0.10727,-0.045014,-0.002594,0.043488,0.215,-0.061799
0.049592,-0.070344,-0.10147,-0.10727,-0.029755,-0.033112,-0.26108,-0.009308
-0.052949,0.014496,-0.058137,-0.10361,-0.019379,-0.10208,-0.39872,0.0071717
-0.084993,-0.047761,-0.0383,-0.087434,0.065766,-0.077668,-0.33433,-0.018463
-0.12436,0.086213,-0.12039,-0.048981,0.03006,0.07248,0.21744,0.050202
-0.11978,0.088655,-0.10422,-0.074311,-0.026398,0.0053407,0.1854,0.12009
-0.10178,0.013581,-0.044709,-0.19821,-0.010529,0.030365,0.061494,0.12711
-0.099031,0.0080873,-0.07248,-0.12436,-0.07126,0.043183,0.14481,0.059052
-0.02884,0.030365,-0.084993,-0.041352,-0.061494,0.0032044,0.084382,0.079805
0.015412,-0.02945,-0.04593,-0.020905,0.024262,-0.025483,-0.015412,0.040436
0.048066,-0.10788,-0.011444,-0.014496,0.019684,-0.01297,-0.028229,-0.014191
0.061799,-0.16556,0.0056458,-0.0083925,-0.0086976,0.017853,0.0099184,-0.034943
0.061494,-0.1738,0.012055,-0.019074,0.0035096,0.030976,0.011444,-0.072175
0.043488,-0.099336,-0.075227,-0.1857,0.061799,-0.0050355,-0.025788,-0.10361
0.037079,-0.061799,-0.050813,-0.17746,0.13443,-0.019989,-0.014801,-0.12802
0.0099184,-0.087739,-0.031891,0.0096132,0.081941,-0.00076295,-0.0065614,-0.10788
0.0028992,-0.092317,0.020905,0.018463,0.0074769,0.0022889,-0.039521,-0.049897
-0.034943,-0.04593,-0.048676,-0.0044251,-0.0028992,0.0022889,-0.14237,-0.039826
-0.091402,0.048371,-0.13443,-0.10452,0.012665,-0.016022,-0.052033,-0.02945
-0.12009,0.05539,-0.14755,-0.11032,-0.013275,-0.0032044,0.016022,0.02121
-0.11063,0.04593,-0.10483,-0.13474,-0.076143,0.0383,0.11307,0.030976
-0.12924,0.065766,-0.087434,-0.18875,-0.13321,0.052949,0.16037,0.082856
-0.18235,0.067903,-0.07126,-0.08957,-0.024567,0.02121,0.13046,0.16709
-0.17227,0.084077,-0.050507,-0.045319,0.12436,0.0053407,0.068513,0.20554
-0.057527,0.11246,-0.076143,-0.085908,0.058137,0.079805,0.063935,0.18875
-0.022431,-0.042573,-0.042878,-0.084382,-0.041352,0.052949,0.053254,0.041962
0.017243,-0.078584,-0.038605,-0.056611,-0.040436,-0.00076295,0.093538,-0.0053407
0.04715,-0.15793,-0.032197,-0.14054,-0.023651,0.034638,0.11002,0.0038148
0.068513,-0.18235,0.02182,0.0065614,0.02945,0.024567,-0.034943,-0.031281
0.082856,-0.19883,-0.0068666,-0.010224,0.050507,0.016938,-0.10605,-0.04715
0.07187,-0.14481,-0.034943,0.13382,0.088045,-0.048066,-0.36576,-0.051728
0.039826,-0.099336,-0.030976,-0.21408,0.041047,0.0068666,0.27268,-0.018463
0.02945,-0.082856,-0.030976,-0.10513,0.032197,-0.0013733,0.27939,-0.057221
-0.016632,-0.0047303,-0.055085,-0.068208,0.029145,-0.00076295,-0.22416,-0.061189
-0.048371,0.065156,-0.095369,-0.051118,0.027008,0.0083925,0.22934,-0.02945
-0.094453,0.10178,-0.12528,-0.084688,0.02121,0.002594,0.074617,-0.012055
-0.13352,0.13596,-0.11551,-0.11978,-0.01236,-0.0013733,-0.82231,-0.0068666
-0.084077,0.063935,-0.091096,-0.068513,-0.045624,0.041657,0.098726,0.12863
-0.075532,-0.050813,-0.053864,-0.069123,-0.04654,-0.020905,0.014801,0.08072
-0.041352,-0.15427,-0.087434,-0.14786,-0.090791,-0.0050355,-0.3151,0.020905
-0.070649,0.0065614,-0.096284,-0.10971,-0.053254,0.02121,0.27939,0.034333
-0.056611,-0.052338,0.0074769,-0.045319,0.05417,-0.0074769,0.25956,0.07187
-0.012665,-0.088655,-0.041657,-0.15702,0.052338,0.02121,0.14206,0.11765
-0.033417,-0.010834,-0.044404,-0.074311,0.023346,-0.037995,0.11704,-0.00015259
0.013581,-0.083772,-0.032807,-0.051728,-0.015106,-0.015717,0.079805,-0.048981
0.056001,-0.22843,-0.0056458,-0.035248,-0.019074,0.055085,0.095369,-0.053864
0.052338,-0.17563,-0.04593,-0.043183,0.0068666,0.14694,-0.023346,-0.069734
0.017243,-0.021515,-0.044404,-0.055695,0.057527,0.27024,-0.22171,-0.057527
0.039826,0.0035096,-0.082246,-0.051118,0.065156,-0.12985,-0.056916,-0.027008
0.036164,-0.015717,-0.025483,-0.070344,0.040131,-0.12741,0.11154,-0.039826
-0.0028992,-0.00015259,0.005951,0.0090028,0.053559,-0.037385,-0.063935,-0.049287
-0.06363,0.055085,-0.094453,0.00076295,0.047456,-0.18265,-0.17624,-0.02884
-0.079805,0.016632,-0.067292,-0.16892,-0.0010681,-0.062104,-0.12039,-0.034943
-0.069429,-0.0080873,-0.12955,-0.18875,-0.016938,0.037079,0.22477,0.014801
-0.045014,-0.016938,-0.12528,-0.099031,0.039826,0.045624,0.39994,0.086519
-0.075227,0.066377,-0.093233,-0.057527,-0.0022889,0.09781,0.34104,0.11673
-0.097505,0.039826,-0.082856,-0.10117,-0.073091,0.032807,-0.10208,0.059052
-0.092927,0.034638,-0.067903,-0.14786,-0.06363,-0.077363,-0.8751,0.056306
-0.056611,0.0013733,-0.034333,-0.14847,0.005951,0.0086976,0.095674,0.1326
-0.0096132,-0.080415,-0.00076295,-0.077363,0.002594,0.076448,0.32364,0.070039
0.0053407,-0.086824,-0.036774,-0.059358,-0.014496,0.05417,0.25956,0.022736
0.010529,-0.103,-0.030976,-0.039521,-0.0013733,0.048066,0.066682,-0.022431
0.018769,-0.10788,-0.032197,-0.043488,0.019379,0.041352,-0.17472,-0.055695
0.019684,-0.121,-0.0068666,-0.06424,0.048371,-0.010224,-0.28428,-0.056916
0.030365,-0.13077,0.0096132,-0.023041,0.052338,0.0053407,0.046235,-0.055695
-0.010529,-0.040436,-0.051728,-0.062409,0.07248,-0.11643,0.088045,-0.052033
-0.018769,-0.026093,-0.058137,-0.077058,0.06424,0.05478,0.0074769,-0.025483
-0.019379,-0.049592,-0.089265,-0.082551,0.014801,0.13169,0.32242,-0.018463
-0.047761,-0.034028,-0.094759,-0.064851,-0.0090028,0.041047,0.22873,-0.023041
-0.052033,-0.031586,-0.094453,-0.018769,-0.016632,-0.058137,-0.16617,0.016938
-0.082246,-0.014191,-0.084993,-0.14328,-0.012055,-0.15976,-0.63005,0.013275
-0.10849,0.057832,-0.092012,-0.1677,-0.039216,0.02121,0.059663,0.047456
-0.10025,0.13321,-0.093538,-0.092927,-0.033112,0.078584,0.38285,0.12222
-0.057221,0.081636,-0.05478,0.0050355,-0.0068666,0.037385,0.032197,0.12894
-0.03769,0.020294,-0.062409,-0.073091,0.018769,0.031586,0.03006,0.04593
0.0050355,-0.042573,-0.07126,-0.12467,0.0028992,0.0050355,-0.017548,0.0041199
0.017853,-0.092927,-0.050507,-0.08896,-0.052033,0.016327,-0.012055,-0.031891
0.045014,-0.17594,0.028534,-0.032502,-0.009308,0.0090028,-0.0074769,-0.069123
0.068513,-0.20859,0.027924,0.0065614,0.048981,-0.026398,-0.009308,-0.059663
0.041047,-0.028534,-0.064546,-0.00045777,0.069429,0.010224,0.029145,-0.028229
0.041657,-0.094453,-0.025483,-0.12131,0.022736,0.034943,0.103,-0.0019837
-0.015717,-0.048676,-0.042573,-0.12253,0.0028992,0.009308,0.21805,-0.020905
-0.019074,-0.11154,-0.019684,-0.053559,0.08011,-0.024262,0.019379,-0.013581
-0.014191,-0.092012,-0.081941,-0.081636,0.1326,-0.0086976,-0.33371,-0.0041199
-0.036469,-0.014496,-0.095979,-0.10636,0.050202,-0.031891,-0.3093,-0.022736
-0.085908,0.046235,-0.11276,-0.12375,-0.022736,0.027314,0.11887,-0.0050355
-0.10147,0.077668,-0.12528,-0.12558,-0.059358,0.021515,0.16739,0.027924
-0.10513,0.10971,-0.095979,-0.092622,-0.085908,0.026703,0.029755,0.045624
-0.079805,0.052644,-0.074922,-0.096284,-0.082856,0.02121,0.060273,0.075227
-0.053254,0.031891,-0.025483,-0.094759,-0.065766,0.012665,0.056001,0.092012
-0.038911,0.0056458,-0.082246,-0.046845,-0.061189,0.032197,0.049592,0.077363
-0.045014,-0.050507,-0.064546,-0.05417,-0.014801,0.019989,0.0047303,0.06302
-0.094148,-0.071565,-0.043793,-0.06302,0.054475,0.009308,-0.028534,0.061189
-0.066987,-0.081941,-0.040742,-0.06424,0.072175,0.027924,0.013886,0.067903
-0.009308,-0.12772,-0.0022889,-0.059358,0.049897,0.042267,0.087434,0.047761
-0.023041,-0.12558,-0.0053407,-0.026398,0.044404,0.042573,0.11826,-0.0053407
-0.002594,-0.068208,-0.035554,-0.039216,0.029145,0.054475,0.12009,-0.0062562
0.016938,0.0062562,-0.00015259,-0.036774,0.044099,0.013275,0.10147,0.011749
0.02182,-0.094759,0.0035096,-0.017548,0.066377,-0.021515,0.039216,0.026093
0.02945,-0.064851,-0.09659,-0.06363,0.07126,-0.0068666,0.0035096,0.027619
-0.023041,-0.00045777,-0.095064,-0.0972,0.070649,-0.042878,0.015106,-0.043183
-0.084077,0.058137,-0.11093,-0.10452,0.02182,-0.018158,-0.087739,-0.091096
-0.099031,0.044404,-0.094148,-0.11124,-0.016632,-0.013275,-0.41642,-0.081941
-0.062104,-0.074922,-0.068208,-0.0972,-0.041047,0.044099,-0.10117,-0.033112
-0.046845,-0.098116,-0.10605,-0.11917,-0.049897,0.037385,0.1561,0.059663
-0.062715,0.0795,-0.099641,-0.11887,-0.040742,-0.0056458,0.012665,0.063325
-0.099031,0.15457,-0.076753,-0.103,-0.033417,-0.0047303,0.041352,0.052338
-0.065156,-0.0083925,-0.022431,-0.072786,-0.036774,0.011444,0.033417,0.059358
0.056611,-0.16648,-0.055085,-0.061189,-0.025788,0.025483,0.035554,0.061189
0.095369,-0.14176,-0.074311,-0.069123,0.013275,0.01236,0.03769,0.056611
0.096284,-0.15793,0.0035096,-0.009308,0.015717,0.01297,0.032197,0.039826
0.059052,-0.20951,0.03006,-0.018463,0.042878,0.0047303,0.0038148,-0.0096132
0.026093,-0.066072,-0.030976,-0.031586,0.085603,-0.0013733,-0.037385,-0.041352
0.023651,-0.010529,-0.014496,-0.072786,0.076143,0.010224,-0.085298,-0.062715
0.027314,-0.057832,0.019684,-0.072175,0.055695,0.010834,-0.041962,-0.075227
0.029755,-0.11734,-0.072786,-0.10361,0.041962,0.013275,0.1323,-0.093538
0.0016785,-0.08957,-0.087434,-0.0080873,0.0065614,0.0038148,0.15427,-0.11154
-0.057221,0.019379,-0.074922,0.10361,-0.0090028,-0.02121,-0.013581,-0.067597
-0.10117,0.048371,-0.13504,-0.27909,0.033722,0.013886,0.043793,-0.027008
-0.081636,0.026093,-0.074617,-0.28367,0.12436,0.054475,0.13626,0.058137
-0.065156,0.069123,-0.094453,0.14817,0.029145,0.017853,-0.089876,0.045624
-0.081941,0.098726,-0.084382,-0.20737,-0.059052,-0.049897,-0.48997,0.00045777
-0.091707,0.085603,-0.08072,-0.10269,-0.083772,-0.04654,0.16251,0.075837
-0.1265,0.059968,-0.11521,-0.08072,-0.083467,-0.041352,0.42802,0.094759
-0.088045,-0.024262,-0.05417,-0.085298,-0.0065614,0.04654,0.27237,0.10758
-0.032502,-0.066987,-0.057221,-0.058747,0.009308,-0.019379,-0.7277,0.037385
0.02945,-0.082856,-0.066987,-0.028229,-0.022126,0.022126,-0.51652,0.0065614
-0.0083925,-0.081636,-0.017548,-0.030365,-0.015106,0.062104,0.26841,0.0010681
-0.016938,-0.098726,-0.0022889,-0.049592,0.019074,0.039216,0.15732,-0.0044251
0.0056458,-0.13046,-0.0028992,-0.13687,0.022126,0.013275,0.24521,0.0065614
0.015717,-0.14481,-0.024872,-0.1619,0.039521,0.024262,0.16526,-0.049897
-0.0096132,-0.092622,0.020294,-0.015106,0.06424,0.074922,0.13291,-0.070039
0.015106,-0.052033,-0.048371,0.0050355,0.07126,0.022126,0.020294,-0.00045777
0.0068666,-0.0035096,-0.082856,0.034943,0.034333,-0.074311,-0.40787,0.027314
0.0068666,0.0038148,-0.088045,-0.058442,0.035554,0.030365,0.16007,0.023346
-0.0090028,0.0062562,-0.090181,-0.19394,0.01297,0.051728,0.22171,0.02945
-0.014191,-0.02945,-0.12894,-0.18814,-0.021515,-0.020905,-0.10819,0.019074
-0.030365,-0.027924,-0.11704,-0.12558,-0.0050355,-0.019379,-0.089876,0.026093
-0.051423,0.029145,-0.0972,-0.069123,-0.04593,0.012055,0.06424,0.039521
-0.052949,0.0022889,-0.016327,0.06363,-0.052033,-0.00076295,0.034028,0.056611
-0.039521,-0.0083925,-0.019684,-0.11337,-0.0090028,-0.027314,0.015412,-0.0065614
-0.068818,0.1445,-0.088655,-0.10117,0.021515,-0.039826,0.24033,-0.0062562
-0.08896,0.07248,-0.060578,-0.091096,0.045624,0.024262,0.32059,0.04715
-0.056611,-0.074922,-0.021515,-0.060883,0.014801,0.045319,0.15305,0.045319
-0.049287,-0.13077,-0.014191,-0.055695,-0.010224,-0.0077821,-0.70909,-0.036469
-0.046845,-0.16007,-0.02182,-0.050507,-0.0044251,0.027314,-0.38895,0.041047
-0.049287,-0.1445,-0.018463,-0.033722,-0.011139,0.092622,0.41062,0.053559
-0.0044251,-0.121,-0.034638,-0.08072,-0.0083925,0.023957,0.10544,-0.018463
-0.050507,-0.032502,-0.058442,-0.082246,0.035859,0.056916,0.31998,-0.027619
-0.020294,-0.056916,-0.059968,-0.103,0.12955,0.1503,0.43015,0.016022
0.016022,-0.040131,-0.077058,-0.083162,0.062409,0.078889,0.025177,0.023041
-0.0062562,0.022736,-0.089265,0.018769,0.0099184,-0.083467,-0.51102,-0.064851
-0.037079,0.062715,-0.092012,-0.075227,0.019074,-0.086519,-0.40055,-0.056611
-0.025483,0.047456,-0.076753,-0.2562,-0.0010681,-0.015106,0.1915,0.027314
-0.013275,-0.024567,-0.074006,-0.11582,-0.01236,-0.020294,0.044404,0.09659
-0.048676,-0.0086976,-0.092012,-0.069123,-0.060578,0.0032044,0.011139,0.060578
-0.058747,-0.022126,-0.064546,-0.075532,-0.052033,0.0041199,0.037385,-0.0010681
-0.061799,-0.068513,-0.049287,-0.067597,-0.010529,-0.040436,-0.087739,0.012665
-0.057832,0.02182,-0.089265,-0.085298,-0.019074,-0.030365,-0.20218,0.076143
-0.022736,0.034028,-0.04715,-0.06363,-0.031281,0.052644,0.19059,0.1326
-0.0022889,-0.090181,-0.016327,-0.048371,0.0065614,0.023041,0.29984,0.047761
0.031586,-0.17502,-0.016327,-0.052644,0.044404,-0.034943,-0.096895,-0.0065614
0.069123,-0.1677,-0.016632,-0.047456,0.028229,0.034028,-0.26169,-0.016632
0.042267,-0.084688,-0.038911,-0.046845,0.033112,0.02945,0.18112,-0.084382
0.030976,-0.036469,-0.052033,-0.055085,0.073091,-0.033112,0.12772,-0.06302
0.0065614,-0.069734,-0.014191,-0.076753,0.058137,-0.0050355,0.0053407,-0.045624
0.009308,-0.046235,-0.061189,-0.027619,0.0053407,-0.009308,-0.04715,-0.065461
-0.026398,0.0206,-0.073396,-0.10758,-0.012055,-0.08072,-0.035554,-0.064546
-0.049592,-0.019989,-0.057832,-0.14328,0.063325,-0.049287,0.1207,-0.078279
-0.069734,-0.010834,-0.035859,-0.0972,0.009308,0.066987,0.19791,-0.060578
-0.056611,-0.076448,-0.092927,-0.099031,-0.04654,0.16281,-0.069123,-0.0065614
-0.081025,0.013275,-0.17319,-0.048981,-0.018158,0.23117,-0.4271,0.037079
-0.099947,0.13748,-0.121,-0.056916,0.026093,-0.08011,-0.2034,0.10758
-0.1033,0.068513,-0.073396,-0.013581,0.027924,-0.064546,0.27207,0.14908
-0.075532,0.016327,-0.0056458,-0.1146,0.00076295,-0.022736,0.10239,0.14603
-0.044709,-0.009308,-0.050507,-0.12741,-0.00076295,-0.0071717,0.093843,0.12375
-0.030976,-0.082551,0.048676,-0.047761,-0.039521,0.027008,0.065766,0.081636
-0.019379,-0.15396,-0.0041199,-0.056306,-0.019684,-0.053254,-0.096895,0.035248
-0.041352,-0.15274,-0.073396,-0.088655,-0.0050355,-0.018158,-0.010224,-0.026703
-0.013581,-0.070039,-0.040436,-0.085603,-0.011444,0.099947,0.18326,-0.020905
0.010834,-0.056306,-0.034333,-0.072786,-0.0065614,0.073701,0.092012,-0.026398
0.034943,-0.075532,-0.041962,-0.072786,0.0080873,0.06424,0.012055,-0.026398
0.050202,-0.059358,-0.031891,-0.06424,0.051728,0.065766,0.0099184,-0.04654
0.025177,-0.059358,-0.030976,-0.052949,0.084688,-0.15061,-0.14054,-0.11704
0.015106,-0.084382,-0.090791,-0.06424,0.06302,-0.11643,-0.12772,-0.11643
-0.024872,0.012665,-0.1033,-0.090486,0.017548,0.085908,0.12222,-0.057221
-0.092927,0.10727,-0.098726,-0.079805,0.013275,0.086519,0.15732,0.0035096
-0.11643,0.089265,-0.099031,-0.04654,-0.0041199,0.019989,-0.046845,0.072175
-0.098116,0.049592,-0.11429,-0.078584,-0.025177,-0.016022,-0.041657,0.14786
-0.074006,0.025177,-0.0972,-0.13077,-0.032807,0.010224,0.065461,0.15549
-0.077668,0.10788,-0.10422,-0.11856,-0.059052,0.031586,0.11307,0.078584
-0.056001,-0.011749,-0.039216,-0.20523,-0.051423,-0.026093,0.12284,0.0016785
0.018158,-0.098421,-0.014496,0.11124,-0.024262,-0.12589,-0.19272,0.0053407
0.013581,-0.092317,-0.050507,-0.065766,0.012665,-0.0035096,-0.45884,-0.019684
0.045319,-0.17075,-0.0016785,-0.16953,0.010834,0.097505,0.079805,0.033722
0.07248,-0.24552,0.048066,0.034638,0.033722,0.058747,0.11795,-0.0071717
0.10544,-0.21897,-0.035859,-0.016632,0.074311,-0.026093,-0.0047303,-0.057221
0.053559,-0.03006,-0.070039,-0.085908,0.066377,-0.045319,-0.052949,-0.083467
0.025177,-0.040436,-0.05478,-0.083467,0.049897,-0.0068666,-0.0083925,-0.085298
-0.00045777,-0.031586,-0.05478,-0.13352,0.073701,0.044709,0.2211,-0.041657
-0.041657,-0.038605,-0.016327,-0.065766,0.028229,0.040742,0.37949,-0.016632
-0.062715,0.0383,-0.097505,-0.048676,-0.0050355,0.010224,0.18509,0.00045777
-0.095064,0.10056,-0.095979,-0.090486,0.015717,-0.036469,-0.87114,-0.044709
-0.079805,0.05417,-0.084382,-0.098421,0.0077821,-0.016022,-0.33219,0.035859
-0.061494,-0.0022889,-0.11276,-0.098421,-0.0090028,0.0068666,0.36393,0.09659
-0.086213,0.026703,-0.10086,-0.14511,-0.013581,0.00076295,0.10483,0.0795
-0.10849,0.033722,-0.098726,-0.23117,-0.039216,-0.017548,0.076448,0.095369
-0.051728,-0.016327,-0.068208,0.22263,-0.066987,0.024872,0.25528,0.11612
-0.063325,0.03006,-0.070039,-0.1445,-0.015106,0.025177,0.23819,0.098116
-0.097505,-0.049897,0.051728,-0.066377,-0.026398,0.044709,0.017548,0.075532
-0.068818,-0.10758,0.044404,-0.078279,-0.033417,0.066682,-0.26352,0.067292
-0.027008,-0.099947,-0.067903,-0.084993,0.019989,0.016632,-0.24186,-0.0050355
-0.0090028,-0.07248,-0.052033,-0.0053407,-0.0035096,0.090486,0.43412,0.00076295
0.029145,-0.04654,-0.048066,0.052949,0.04715,0.031281,0.41337,-0.01297
0.096895,-0.15549,-0.0041199,-0.061494,0.048371,0.033417,0.29252,-0.031891
0.066682,-0.074006,-0.065156,-0.21012,0.065461,-0.026093,-0.25315,-0.10208
0.017853,-0.049592,-0.063935,-0.084382,0.16342,-0.094759,-1.0146,-0.17411
0.0050355,-0.10849,-0.052949,-0.088655,0.015106,0.052949,0.17899,-0.057527
-0.047761,-0.018769,-0.068818,-0.11093,-0.054475,0.037385,0.42863,-0.066987
-0.062104,0.065156,-0.10941,-0.068208,0.017243,-0.037385,-0.045014,0.0028992
-0.045014,0.035859,-0.1146,-0.11093,0.019684,-0.067903,-0.44938,0.035554
-0.070039,0.049592,-0.084382,-0.11704,-0.0090028,-0.0090028,-0.14328,0.018158
-0.086824,0.058747,-0.084382,-0.10452,-0.063325,0.027008,0.28214,0.082551
-0.065156,0.00015259,-0.07248,-0.11063,-0.036774,0.00015259,0.04593,0.058442
-0.047761,-0.064546,-0.079194,-0.090791,-0.038911,0.023957,0.091402,0.066682
-0.057832,-0.036164,-0.049897,-0.086824,-0.050507,0.044404,0.12863,0.047761
-0.0090028,-0.012665,-0.023041,-0.022126,-0.029145,0.040131,0.094759,0.078584
0.023651,-0.042878,-0.020905,-0.00076295,-0.0065614,0.012665,0.034333,0.013581
0.043793,-0.11154,0.015412,-0.032197,0.05417,-0.034943,0.12833,-0.039826
0.08835,-0.30076,0.077668,-0.0083925,0.067903,-0.0080873,-0.056916,-0.015717
0.056001,-0.33616,-0.062715,-0.067597,0.08011,-0.019379,-0.28824,-0.053254
-0.028229,-0.11551,-0.028229,-0.059052,0.093538,-0.043793,-0.36484,-0.062104
-0.052033,0.018158,-0.040742,-0.0028992,0.040131,0.08835,0.30198,0.022126
-0.082246,0.070344,-0.10819,-0.078889,0.012665,0.065156,0.12833,0.014191
-0.10178,0.069429,-0.10513,-0.11765,0.018769,0.0047303,0.057832,0.00076295
-0.064546,0.055695,-0.10758,-0.078889,-0.024262,0.0062562,0.018158,-0.011444
-0.08011,0.078584,-0.10544,-0.10452,-0.019684,-0.0035096,-0.094453,-0.042573
-0.10575,0.077363,-0.10025,-0.12253,-0.033112,0.034333,-0.058137,-0.028229
-0.11063,0.075532,-0.090181,-0.036469,-0.10941,0.064546,0.086213,0.066682
-0.11917,0.15183,-0.090791,-0.047456,-0.075227,0.018769,0.15488,0.11154
-0.074617,0.075532,-0.056916,-0.29526,0.049897,-0.02945,0.12161,0.11826
-0.033112,-0.051728,-0.058442,-0.21927,0.13779,-0.0068666,0.14694,0.12009
0.029755,-0.091707,-0.026703,-0.032502,0.032807,-0.027924,-0.002594,0.10147
0.077363,-0.13138,-0.030365,-0.043488,-0.079805,0.023346,0.0065614,0.09781
0.095979,-0.1503,-0.024872,-0.0047303,-0.041962,0.043183,0.045319,0.049287
0.090791,-0.23819,-0.013581,0.033112,0.0035096,0.00015259,-0.073396,-0.033112
0.052949,-0.14969,-0.027924,-0.075227,0.084382,-0.00076295,-0.04654,-0.11307
0.0010681,-0.061799,-0.053254,-0.066377,0.10269,0.0010681,-0.049592,-0.1207
0.051728,-0.095979,0.014496,-0.021515,0.048371,-0.019684,-0.065461,-0.081941
0.045319,-0.056916,-0.0053407,-0.030365,0.035859,-0.017548,-0.0010681,-0.081025
-0.03769,0.029145,-0.11948,-0.078889,0.029755,0.023041,0.028229,-0.095369
-0.065461,0.0062562,-0.070649,-0.07126,0.019379,0.02945,-0.0090028,-0.058747
-0.11124,0.040742,-0.089265,-0.082856,0.013886,-0.00076295,-0.0019837,-0.034638
-0.12833,0.08835,-0.121,-0.11337,0.019074,-0.0032044,-0.0047303,0.034028
-0.091402,0.057221,-0.092317,-0.121,-0.030365,0.0206,0.054475,0.12192
-0.11032,0.027924,-0.053864,-0.11032,-0.055695,0.036469,0.26352,0.081941
-0.11612,0.034333,-0.093538,-0.11521,-0.055085,0.013886,0.2739,0.082551
-0.073701,-0.05478,-0.046235,-0.078889,-0.065156,-0.0022889,-0.025177,0.13321
-0.055695,-0.098421,-0.068513,-0.08072,-0.030671,-0.05417,-0.81407,0.068513
0.029755,-0.11398,-0.059052,-0.069429,-0.015412,0.035554,-0.16861,0.040436
0.009308,-0.070649,-0.016632,-0.017243,-0.014801,0.041657,0.26627,0.013581
0.035248,-0.048676,-0.025483,-0.048371,0.076753,0.030365,0.079194,-0.0019837
0.051728,-0.10178,-0.0065614,-0.076753,0.11032,0.033417,0.041962,-0.024872
0.06424,-0.14786,-0.0096132,-0.053559,0.023651,0.017243,0.23636,-0.042878
0.07248,-0.16281,-0.0074769,-0.041657,0.017548,0.018158,0.38071,-0.04654
0.037385,-0.11612,-0.022736,-0.036774,0.037079,0.015106,0.16892,-0.069123
-0.057832,0.048066,-0.087434,-0.069734,0.063325,-0.049897,-0.83024,-0.14878
-0.074006,0.050202,-0.16556,-0.095369,0.033722,-0.031586,-0.21439,-0.02884
-0.075837,0.062409,-0.10819,-0.11398,0.0019837,-0.022736,0.42527,0.06302
-0.086824,0.0206,-0.04715,-0.082551,0.011749,-0.0056458,0.39658,0.050202
-0.084993,0.032197,-0.095064,-0.10513,0.0016785,0.017243,0.093538,0.065461
-0.11948,0.07248,-0.08835,-0.12253,0.0047303,-0.009308,-0.77897,0.069123
-0.092927,0.026703,-0.070344,-0.1091,-0.042573,0.05539,-0.18814,0.14389
-0.07187,0.036469,-0.068818,-0.095674,-0.092012,0.13291,0.32761,0.077974
-0.035859,-0.01297,-0.048066,-0.090791,-0.07126,0.010224,0.57816,0.052338
-0.014191,-0.059968,-0.043183,-0.076753,-0.028534,-0.23362,-0.11032,-0.033722
0.050507,-0.12222,-0.05478,-0.027314,-0.0044251,-0.21317,-0.72831,-0.099031
0.009308,-0.10941,-0.019989,-0.052338,0.014191,0.074922,-0.098421,-0.10941
0.02884,-0.13199,-0.0022889,-0.035248,0.062104,0.089265,0.25376,0.041047
0.058137,-0.14786,0.009308,-0.031281,0.060578,0.28885,0.11093,0.075532
0.056001,-0.10452,-0.0068666,-0.027008,0.072175,0.14755,0.015106,-0.056001
0.041962,-0.083772,-0.048371,-0.049592,0.045624,-0.20432,-0.026703,-0.055695
0.027619,-0.083772,-0.070344,-0.19333,0.023346,-0.045319,0.03769,-0.066682
-0.025483,0.0062562,-0.072175,-0.0071717,0.046845,-0.013886,0.13169,-0.050813
-0.08072,0.029145,-0.095369,0.043488,0.061799,0.018769,0.15244,0.012665
-0.14084,0.071565,-0.1033,-0.29648,0.037995,-0.0047303,0.060578,0.052949
-0.13993,0.087434,-0.12619,-0.13901,-0.065766,0.030671,0.059358,0.103
-0.1323,0.11582,-0.1265,-0.11246,-0.10697,0.077363,0.052949,0.11276
-0.10117,0.056306,-0.092927,-0.069123,-0.067597,0.054475,0.058442,0.0383
-0.099947,0.018463,-0.045624,-0.19669,-0.010224,0.012665,0.0028992,0.0096132
-0.059052,-0.046235,-0.0086976,-0.01236,-0.0028992,0.0053407,0.052949,0.034943
-0.0083925,-0.10758,-0.026093,0.03769,-0.04654,0.02121,0.15824,0.03769
0.025483,-0.11643,-0.015412,-0.11398,0.031281,-0.0032044,0.16312,0.044099
0.09781,-0.1735,-0.05417,0.043183,0.05417,-0.020294,-0.12345,-0.0050355
0.07248,-0.08957,-0.024567,-0.020294,0.03006,-0.03006,-0.51133,-0.085603
0.037385,-0.064546,-0.038911,-0.19425,0.067903,-0.027619,-0.043488,-0.08072
0.056611,-0.09781,-0.0022889,-0.051423,0.013581,0.05417,0.10697,-0.029145
0.04593,-0.19944,0.044404,-0.050507,0.066682,0.053559,0.0016785,-0.059358
0.018769,-0.18479,-0.012055,-0.051728,0.059663,0.027314,-0.022736,-0.077363
-0.019379,-0.027924,-0.11124,-0.034638,0.027008,0.017243,-0.036469,-0.034638
-0.035248,0.032502,-0.11154,-0.083467,0.0028992,-0.15854,-0.057527,-0.022736
-0.07187,0.085603,-0.12467,-0.13535,-0.032502,-0.016022,-0.051423,-0.033722
-0.098421,0.10819,-0.10269,-0.14115,0.0035096,0.10697,-0.015717,-0.0090028
-0.077363,0.061189,-0.069429,-0.036164,0.019379,0.032807,0.17502,0.059358
-0.11398,0.07126,-0.076753,-0.0071717,0.00076295,-0.10239,0.25528,0.06424
-0.093843,0.039826,-0.095979,-0.1149,-0.083467,0.013886,0.19516,0.16434
-0.056001,-0.075532,-0.054475,-0.20188,-0.08957,0.065766,-0.039826,0.18479
-0.035554,-0.16434,-0.072175,-0.17929,0.12253,-0.015412,-0.30228,0.10697
-0.014191,-0.036774,-0.088045,-0.076753,0.067597,0.054475,0.16922,0.095979
-0.00076295,0.044404,-0.051118,-0.066682,-0.035859,0.010529,0.54124,0.052033
-0.034943,-0.013581,-0.044404,-0.069123,-0.035554,0.023041,0.55711,0.019989
-0.039521,0.0035096,-0.04654,-0.026703,-0.016632,0.071565,-0.31632,-0.075532
-0.0062562,-0.051423,-0.029755,-0.034638,0.031586,0.025177,-1.4079,-0.11826
0.016938,-0.13901,-0.023957,-0.016022,0.039826,0.0013733,0.23606,0.017243
0.043488,-0.15213,0.0096132,-0.034943,0.029755,-0.02121,0.3035,0.0077821
0.010529,-0.043793,0.026093,-0.051423,0.077363,-0.017243,0.022126,-0.072786
-0.030365,-0.11551,0.010834,-0.073091,0.067292,-0.011749,0.19944,-0.082856
-0.036469,-0.072175,-0.10452,-0.083772,-0.0047303,0.02884,0.030976,-0.035554
-0.081941,0.1091,-0.12863,-0.076448,-0.01297,0.0206,0.024262,-0.039826
-0.077974,0.10361,-0.10971,-0.03769,-0.023041,0.018463,0.061494,0.010529
-0.096895,0.073396,-0.10422,-0.10086,-0.0074769,0.020294,0.023346,0.042267
-0.090181,-0.015717,-0.077363,-0.14145,-0.014191,-0.0041199,0.017548,0.059358
-0.043183,-0.14206,-0.076448,-0.10147,-0.067597,-0.017853,0.023041,0.082551
-0.053559,-0.00045777,-0.10452,-0.090791,-0.043793,-0.019684,0.030365,0.059358
-0.046845,0.019684,-0.063325,-0.0795,-0.014801,-0.019074,0.017243,0.048066
-0.037385,-0.026398,-0.038911,-0.074922,-0.0068666,0.0071717,0.09659,0.060273
0.005951,0.0065614,-0.042573,-0.074617,-0.002594,0.045624,0.24338,0.043793
0.015717,-0.058747,-0.018463,-0.058442,0.0090028,0.062104,0.10452,0.030976
0.058137,-0.11795,-0.015412,-0.030671,0.032807,0.030976,-0.22141,-0.031891
0.096895,-0.1503,-0.029145,0.043183,0.048371,-0.0077821,-0.36088,-0.0972
0.094759,-0.18753,0.0041199,-0.044099,0.038911,0.045624,0.13535,-0.11643
0.051728,-0.15,-0.016327,-0.20523,0.044099,0.00045777,0.21347,-0.070039
0.015717,-0.072786,-0.056611,-0.064851,0.061189,-0.015717,0.17227,-0.025788
-0.02945,-0.026093,-0.059358,-0.010224,0.011749,0.0086976,0.11826,0.015106
-0.067597,0.01236,-0.10361,-0.093843,0.044404,-0.10727,-0.33616,0.037995
-0.096284,0.058442,-0.0972,-0.13748,0.083162,-0.088655,-0.55406,0.02121
-0.10971,0.10208,-0.12497,-0.099641,0.013275,0.065156,0.15824,0.065461
-0.13077,0.11673,-0.11429,-0.10788,-0.028534,0.03006,0.20676,0.049897
-0.14176,0.076448,-0.081025,-0.11917,-0.049592,0.018158,0.078279,0.034333
-0.099031,0.025177,-0.065766,-0.097505,-0.061799,0.057527,0.22293,0.12467
-0.074617,0.012055,-0.052338,-0.087739,-0.044709,0.027924,0.14664,0.10636
-0.036469,-0.084382,0.0016785,-0.080415,-0.035554,-0.023041,-0.061799,0.044099
-0.0013733,-0.16403,-0.0090028,-0.053254,-0.022431,-0.011749,-0.37003,-0.0028992
0.025177,-0.14847,-0.019684,-0.038605,-0.013581,0.063325,0.028229,-0.033417
0.063935,-0.10056,-0.074922,-0.045624,0.031586,0.043183,0.10758,-0.061494
0.064546,-0.0013733,-0.084688,-0.059358,0.053864,0.005951,-0.016632,-0.085603
0.047456,-0.098726,0.014191,-0.047761,0.044404,0.019989,0.030365,-0.067292
0.028229,-0.08835,-0.040131,-0.042573,0.059358,-0.0010681,0.0086976,-0.026703
0.01297,-0.040436,-0.056001,-0.045624,0.093843,-0.066072,-0.043183,-0.00076295
-0.038605,-0.0016785,-0.069429,-0.066987,0.085298,-0.073091,-0.061189,-0.046845
-0.043488,-0.067903,-0.060883,-0.056916,0.025483,0.021515,0.2089,-0.035248
-0.056916,-0.033417,-0.058442,-0.073396,-0.0083925,0.066682,0.1326,-0.025483
-0.052033,-0.015412,-0.035554,-0.076753,-0.014801,0.014801,-0.24186,-0.002594
-0.072786,0.019684,-0.13291,-0.11154,-0.0022889,-0.061799,-0.29679,0.069734
-0.081941,0.027314,-0.11032,-0.16068,0.0086976,-0.049592,-0.057527,0.045014
-0.073701,-0.012665,-0.046235,-0.12161,-0.08011,0.059663,0.074006,0.031891
-0.08072,-0.069429,-0.053254,0.0044251,-0.14206,0.085603,0.15396,0.08957
-0.067597,0.019989,-0.10422,-0.12314,-0.025483,-0.0028992,0.13809,0.13382
0.0074769,0.073701,-0.085298,-0.12955,0.092012,-0.15854,0.21347,0.15732
0.066377,-0.066987,-0.047761,-0.083772,0.0071717,-0.020294,0.029145,0.011444
0.04593,-0.062104,-0.037995,-0.060883,-0.018769,0.030976,-0.57908,-0.13657
-0.025177,0.0016785,-0.01236,-0.019684,0.0053407,0.0041199,0.14389,-0.096284
0.0077821,-0.069734,0.043793,-0.015412,0.043488,0.0972,0.62516,-0.062715
0.032197,-0.11643,-0.021515,0.0099184,0.027008,0.14206,0.48051,0.02121
0.015717,-0.099947,-0.033722,-0.0032044,0.079194,0.022431,-0.48692,-0.034943
-0.0022889,-0.11887,0.013581,-0.075532,0.098726,-0.02884,-0.59068,-0.024872
-0.011444,-0.1387,-0.034943,-0.26719,0.045319,0.023041,0.17166,-0.012055
-0.050813,-0.24247,-0.068513,-0.10849,0.020905,-0.016938,0.033417,-0.002594
-0.096284,-0.098421,-0.099336,-0.093233,0.011139,-0.0086976,0.09781,0.060273
-0.12863,0.12009,-0.12253,-0.21073,-0.026703,0.011444,-0.048981,0.1149
-0.14359,0.15335,-0.11215,-0.022431,-0.062104,0.049592,0.052949,0.085908
-0.10819,0.088045,-0.11917,0.021515,-0.059358,0.02884,0.011749,0.092927
-0.076143,0.0206,-0.103,-0.22171,-0.067597,0.053254,-0.083772,0.074617
-0.078889,0.10727,-0.082551,-0.052644,-0.073701,0.08896,0.18021,0.040436
-0.049592,0.074311,-0.056611,-0.065766,-0.036469,0.039216,0.090791,0.036164
-0.0083925,-0.044099,-0.04715,-0.052338,-0.00045777,-0.0028992,-0.0056458,0.023346
-0.015412,-0.084077,-0.037995,-0.06302,0.0047303,-0.020905,-0.035248,0.013581
0.023346,-0.09659,-0.026398,-0.14847,0.026703,-0.029755,0.18906,0.02945
0.025788,-0.096895,0.0062562,-0.027619,0.057527,0.014801,0.55131,-0.014191
0.026093,-0.081331,-0.010834,0.012665,0.063325,-0.019379,0.19669,-0.052949
0.050202,-0.10025,-0.036774,0.033112,0.027924,-0.07187,-0.56382,-0.066987
0.067597,-0.11978,-0.041962,-0.025483,0.030365,-0.0022889,-1.1949,-0.168
0.024872,-0.098116,-0.060883,-0.18387,0.052338,0.038911,0.11063,-0.030976
-0.0206,-0.10605,-0.059358,-0.1149,0.048981,-0.02182,0.32181,-0.017243
-0.036469,-0.076753,-0.068513,-0.060883,0.02182,0.0099184,0.19791,-0.0047303
-0.034333,0.0047303,-0.012055,-0.024262,0.0032044,-0.0028992,0.1445,-0.0010681
-0.029755,-0.0019837,-0.07126,-0.066377,0.0047303,0.016938,-0.034333,-0.044404
-0.11307,0.068208,-0.15305,-0.10971,-0.061494,0.069123,0.22599,-0.016938
-0.11612,0.10452,-0.14145,-0.2211,-0.029145,-0.041352,0.1503,0.047761
-0.084382,0.17227,-0.074617,0.030671,0.067903,-0.11032,0.095369,0.13169
-0.095064,0.11948,-0.06302,-0.091707,0.04593,-0.060578,-0.02121,0.099947
-0.041657,-0.041962,-0.03769,-0.15579,0.048981,-0.015717,-0.50034,0.048981
0.0047303,-0.14206,-0.0044251,-0.073091,-0.012055,0.40177,-0.1442,0.017548
0.017243,-0.18631,-0.025788,-0.051118,-0.0019837,0.13321,0.14206,-0.043183
0.011139,-0.12955,-0.0086976,-0.047761,-0.019379,-0.14755,0.0032044,-0.03769
0.0041199,-0.10391,-0.028229,0.014496,-0.02884,-0.025483,0.10147,-0.036469
0.037385,-0.078279,-0.031891,-0.030976,0.023651,-0.063325,0.15091,-0.017548
0.038911,-0.096284,-0.040131,-0.10513,0.092317,0.0044251,0.078584,0.013275
-0.018158,-0.098116,-0.039216,-0.10849,0.11795,-0.0047303,-0.19913,0.0080873
-0.017243,-0.074006,-0.052644,-0.11734,0.023041,-0.037995,-0.20127,0.033722
-0.04654,-0.023651,-0.072786,-0.19516,-0.06363,0.025483,0.11887,-0.013275
-0.041352,0.0022889,-0.090181,-0.12284,-0.049287,0.063325,0.25406,0.0071717
-0.04654,0.011749,-0.11307,-0.070954,-0.01236,0.039216,0.1564,0.068208
-0.057832,0.043793,-0.12528,-0.087434,-0.0090028,-0.005951,-0.023041,0.040436
-0.077363,0.063935,-0.11276,-0.0383,-0.037079,0.0047303,0.045319,0.060578
-0.075227,0.017243,-0.07187,0.005951,-0.021515,-0.15305,-0.022431,0.0068666
-0.081331,0.067292,-0.098421,-0.073396,-0.010834,0.023346,-0.12406,0.045319
-0.072786,0.051423,-0.059968,-0.12558,-0.016938,0.032197,-0.27604,0.032807
-0.044709,-0.010224,-0.0077821,-0.066987,-0.034638,0.024872,0.0010681,0.02182
-0.033722,-0.060578,0.002594,-0.022126,-0.011139,0.040436,0.25284,0.0038148
0.027008,-0.13474,-0.0047303,-0.040742,0.016022,0.014191,0.038911,-0.0080873
0.040131,-0.17838,0.002594,-0.060273,0.04593,-0.0099184,0.0032044,-0.027314
0.050507,-0.21378,-0.018769,-0.050202,0.054475,-0.025788,-0.025483,-0.070954
0.094148,-0.11368,-0.10666,-0.063325,0.052338,0.017853,0.0071717,-0.049287
0.066377,-0.098726,-0.0083925,-0.061799,0.057527,0.061189,0.0065614,-0.095369
-0.0071717,-0.10208,-0.025788,-0.055085,0.058137,0.068208,-0.039826,-0.11337
-0.066072,0.015106,-0.072786,-0.089876,0.028229,-0.016938,-0.077668,-0.051423
-0.053559,0.026398,-0.073091,-0.085298,0.01297,-0.043793,-0.058747,0.024262
-0.067597,0.023651,-0.092317,-0.093538,0.019684,-0.015412,0.010529,0.041352
-0.083772,0.055085,-0.12131,-0.11093,0.0056458,0.00015259,0.07187,0.040436
-0.10727,0.092012,-0.1033,-0.11704,-0.017548,0.01236,0.10605,0.084077
-0.11246,0.0795,-0.090181,-0.12039,-0.033417,0.037995,0.10697,0.10208
-0.085908,0.04715,-0.080415,-0.11795,-0.06363,0.0383,0.051728,0.081636
-0.067292,0.0083925,-0.070649,-0.11521,-0.06302,0.052644,0.023041,0.060273
-0.049592,-0.026703,-0.073396,-0.079805,-0.064851,0.070649,0.019379,0.062409
-0.03769,-0.044099,-0.016327,-0.024262,-0.039826,0.068818,0.012055,0.073396
-0.0041199,-0.092012,-0.022736,-0.010224,0.016938,0.043183,0.023957,0.093538
0.014801,-0.11612,-0.029145,-0.11124,0.081636,-0.06424,-0.061189,0.029755
0.002594,-0.1088,-0.041047,-0.028229,0.057527,-0.12406,-0.010529,-0.034638
0.017853,-0.11826,-0.01297,0.059358,0.034943,-0.12558,-0.13016,-0.053559
0.025788,-0.12345,0.017243,-0.13291,0.06302,0.012665,-0.22141,-0.055695
-0.014191,-0.048066,-0.052033,-0.15702,0.10422,0.016022,0.067903,-0.042573
-0.032502,-0.0077821,-0.068513,-0.059358,0.079194,0.034028,0.29892,-0.029755
0.0086976,0.02182,-0.050813,-0.043488,-0.012055,0.10117,0.27146,-0.017548
-0.0010681,0.058442,-0.11124,-0.07248,-0.024262,0.11948,0.3035,-0.0086976
-0.028534,-0.061494,-0.10361,-0.087129,-0.0096132,0.028534,0.29404,-0.0028992
-0.023346,-0.033417,-0.066682,-0.081331,-0.010529,-0.074617,0.13199,0.041352
-0.049897,0.040742,-0.052338,-0.079805,-0.0028992,-0.090791,-0.88365,-0.017548
-0.051728,-0.04593,-0.054475,-0.0972,0.0035096,-0.048066,-0.67948,0.016022
0.0068666,-0.18692,-0.06424,-0.10269,-0.023346,0.039521,0.27512,0.1088
-0.027008,-0.14878,-0.10544,-0.10056,-0.02945,0.06302,0.21561,0.020905
-0.077668,0.09659,-0.10605,-0.096895,-0.018463,0.030976,0.10788,-0.018158
-0.054475,0.056001,-0.053864,-0.10056,-0.040742,0.018463,-0.18448,0.023041
-0.033722,-0.016327,-0.038605,-0.085603,-0.033417,0.058442,-0.21439,0.076753
-0.023041,-0.084993,0.0074769,-0.066377,-0.0019837,0.087434,0.3389,0.1384
-0.0080873,-0.058137,-0.018158,-0.054475,0.018769,0.023957,0.13046,0.084077
0.016938,-0.10178,0.012055,-0.028534,0.045624,0.002594,0.019074,-0.034638
0.032197,-0.16648,0.030365,0.02121,0.041962,0.025483,0.070649,-0.081025
0.0099184,-0.12772,-0.033722,-0.023651,0.056306,0.018769,0.067292,-0.077668
0.00076295,-0.12039,-0.04654,0.0035096,0.057221,-0.024872,-0.0032044,-0.095979
-0.041047,-0.060578,-0.078889,-0.085603,0.056306,-0.066377,-0.13443,-0.072175
-0.027619,0.070649,-0.098726,-0.15122,0.037385,-0.018158,0.053254,0.0074769
-0.066987,0.081636,-0.11704,-0.087739,0.014191,0.010224,0.37003,0.040131
-0.1033,0.12833,-0.12436,-0.12467,0.026093,0.031586,0.56748,0.0383
-0.10513,0.15732,-0.1033,-0.14115,0.010834,-0.048066,-0.078889,0.031586
-0.090791,0.079194,-0.10025,-0.11795,-0.032502,-0.12955,-1.3738,0.033722
-0.075227,0.035554,-0.068208,-0.090486,-0.075837,0.069734,-0.15488,0.11398
-0.019684,-0.036164,-0.072175,-0.066377,-0.072175,0.076753,0.53269,0.06363
-0.040436,-0.090181,-0.080415,-0.065461,-0.029145,-0.0090028,0.027619,0.026093
0.010529,-0.076143,-0.059968,-0.084382,0.00076295,0.0062562,0.05417,0.040131
0.018158,-0.066072,-0.020905,-0.095674,0.02884,-0.0041199,0.024262,0.010529
-0.00045777,-0.11978,-0.018769,-0.088655,0.041657,0.012665,0.016938,-0.061799
-0.0074769,-0.10758,-0.036774,-0.032197,0.021515,0.038911,0.048371,-0.050507
0.011749,-0.11337,-0.0019837,-0.023346,0.0053407,0.059052,0.1445,-0.017548
0.035859,-0.16281,0.066682,-0.0050355,0.027924,0.063325,0.23606,-0.034333
0.056306,-0.19821,0.016632,-0.042878,0.066682,-0.0047303,0.16709,-0.048981
0.021515,-0.042573,-0.057832,-0.043488,0.074006,-0.069123,-0.24643,-0.066682
-0.024872,0.025177,-0.090791,-0.21592,0.072175,-0.045319,-0.28794,-0.088045
-0.06363,0.056001,-0.11093,0.1445,0.073091,-0.033417,0.10666,-0.017548
-0.11582,0.095369,-0.13687,-0.27634,-0.022736,0.0022889,0.011444,0.078279
-0.14237,0.092012,-0.1146,-0.11704,-0.088045,0.087434,0.10178,0.11246
-0.14237,0.066682,-0.12039,-0.075532,-0.063325,0.085298,0.12863,0.10452
-0.12161,0.019989,-0.079194,-0.1149,-0.010529,0.031586,0.11154,0.096895
-0.074617,-0.078584,-0.051728,-0.11948,-0.0019837,-0.017548,0.014191,0.074006
-0.029145,-0.098116,-0.062409,-0.096284,-0.04593,0.022126,0.0047303,0.067292
-0.00045777,-0.036469,-0.044404,-0.05478,-0.041352,0.026703,-0.0032044,0.04715
0.039826,-0.062104,-0.0038148,-0.032502,-0.0068666,0.011139,0.13657,-0.045624
0.065766,-0.10391,0.012055,-0.01297,0.010529,0.034638,0.1796,-0.045319
0.055695,-0.050507,-0.048676,0.024567,0.033722,-0.057527,-0.28428,-0.05539
0.031586,-0.092317,-0.016327,-0.013581,0.11185,-0.062409,-0.48966,-0.081331
0.046235,-0.14939,0.0080873,-0.026398,0.11215,0.037385,0.094759,-0.020905
0.039216,-0.11612,-0.061189,-0.098726,0.06424,-0.037995,0.094148,-0.044404
0.01297,-0.098116,-0.038605,-0.087739,0.049287,0.027008,0.0090028,-0.019684
-0.00076295,-0.051728,-0.073396,-0.061799,0.037385,0.094759,0.075532,-0.041047
-0.062715,0.086213,-0.10727,-0.070344,0.011444,0.04715,-0.0096132,-0.035248
-0.11124,0.11215,-0.1091,-0.12467,-0.052949,0.0071717,0.0041199,-0.0050355
-0.10117,0.062104,-0.092622,-0.21836,-0.074922,-0.016327,0.077363,0.045624
-0.057221,0.028229,-0.12345,-0.22812,0.05539,-0.044099,-0.010834,0.053559
-0.030671,-0.10178,-0.078889,0.22599,0.073091,0.034028,-0.019074,0.093843
-0.051118,-0.02884,-0.069429,-0.23362,-0.1033,0.052949,0.0071717,0.043488
-0.031891,0.039216,-0.093538,-0.2388,-0.039521,0.032502,0.23301,0.049287
-0.035859,0.035859,-0.11856,-0.10697,0.019684,0.041657,0.15213,0.068513
-0.051118,-0.014496,-0.0056458,0.0096132,-0.017243,-0.023957,-0.096895,0.045014
-0.031586,-0.16037,0.096284,0.082856,-0.035554,-0.0047303,-0.058137,0.024262
0.018769,-0.31266,0.050202,0.037079,0.0056458,-0.16098,0.14115,0.082551
-0.016327,-0.07248,-0.050813,0.030976,0.052949,-0.059358,0.43168,0.045014
-0.034943,0.027314,-0.045624,-0.17594,0.096284,0.02945,-0.62547,-0.033417
-0.00076295,-0.05539,-0.05417,-0.14267,0.016022,0.11948,-0.262,0.031281
0.017243,-0.061799,-0.059968,-0.083467,-0.013581,0.068208,0.11826,0.034943
0.0050355,-0.080415,-0.092012,-0.07126,0.018158,0.075227,-0.083772,-0.012665
-0.041352,0.019684,-0.077058,-0.070344,0.035859,0.016938,-0.084993,-0.043488
-0.059968,0.013275,-0.056001,-0.087739,0.046235,-0.00076295,0.10483,-0.018463
-0.055085,0.026398,-0.098726,-0.090791,-0.016632,0.06424,0.24643,-0.0056458
-0.048981,0.034333,-0.083162,-0.075227,-0.028229,0.013275,0.095674,0.0206
-0.056001,0.049592,-0.088045,-0.0972,-0.017243,-0.013275,0.29191,0.043183
-0.074617,0.067292,-0.11337,-0.11337,-0.031586,0.045624,0.35203,0.044404
-0.083162,0.034028,-0.081025,-0.09781,-0.052949,0.095369,0.29435,0.023651
-0.053864,-0.0206,-0.046235,-0.06424,-0.023346,-0.025177,-0.61906,-0.020294
-0.014496,-0.076448,-0.014191,-0.055085,0.023041,-0.10086,-0.33738,0.089876
-0.023651,-0.068513,-0.026703,-0.058442,0.049592,-0.12253,-0.32425,0.018158
0.013581,-0.089876,-0.023957,-0.051423,0.028229,-0.010224,-0.2742,-0.015412
0.031586,-0.11185,-0.032197,-0.066987,0.0035096,0.040742,0.14694,0.005951
0.058137,-0.10971,-0.051728,-0.081331,0.0077821,0.025177,0.16953,-0.055085
0.051118,-0.034638,-0.032502,-0.06424,0.02945,0.022126,0.095979,-0.10178
0.052033,-0.049897,-0.036774,-0.069123,0.042878,0.014496,0.064546,-0.1033
0.0041199,-0.08011,-0.034333,-0.027619,0.032197,0.030671,0.063325,-0.090181
-0.021515,-0.052949,-0.048371,-0.020905,0.051728,-0.0016785,0.034333,-0.09781
-0.038911,-0.037995,-0.062715,0.015106,0.082551,-0.026093,-0.00045777,-0.034943
-0.061189,-0.056001,-0.076753,-0.078584,0.057832,-0.023041,0.023957,0.028229
-0.11063,-0.022431,-0.10452,-0.14572,0.014801,-0.08835,0.056306,0.082856
-0.11429,0.04654,-0.11276,-0.15763,-0.040436,-0.075227,0.067597,0.1146
-0.11948,0.069734,-0.10208,-0.12497,-0.070039,0.015106,0.067597,0.099031
-0.1326,0.060273,-0.081941,-0.12436,-0.069429,0.1387,0.051423,0.047456
-0.081025,0.009308,-0.067903,-0.093843,-0.053254,0.374,0.034333,0.068208
-0.039521,-0.026703,-0.0080873,-0.086824,-0.027008,0.059358,0.016938,0.07126
-0.034638,-0.031586,-0.040131,-0.069123,-0.030671,-0.12436,0.02884,0.028229
0.0065614,-0.073396,-0.04654,-0.053254,0.0016785,-0.011139,0.010834,0.023651
0.068513,-0.10483,-0.036164,0.022126,0.031586,-0.02121,-0.02121,0.027619
0.090181,-0.15702,0.040742,0.010834,0.044099,-0.016938,-0.050507,0.0056458
0.076448,-0.17227,-0.010834,-0.21103,0.05417,-0.0074769,-0.024567,-0.030365
0.026703,-0.0080873,-0.074922,-0.1265,0.086213,-0.018158,-0.011444,-0.045319
0.0096132,-0.0086976,-0.059968,-0.014496,0.063935,0.019989,0.005951,-0.044404
-0.0047303,-0.057832,-0.077058,-0.060883,0.023346,0.019379,0.010529,-0.029755
-0.022126,-0.0074769,-0.050813,-0.078584,0.020905,-0.00015259,0.0096132,-0.017243
-0.06302,0.050507,-0.090486,-0.061799,0.026703,-0.024872,0.024262,-0.012055
-0.091707,0.044099,-0.08835,-0.12253,0.034943,0.018158,0.047456,0.03006
-0.11246,0.049897,-0.051118,-0.10513,0.0047303,0.042878,0.043488,0.0206
-0.092012,-0.0047303,-0.050507,-0.077668,-0.04715,0.03006,0.027619,-0.0083925
-0.067597,-0.063935,-0.089265,-0.03769,-0.047761,0.0206,0.051423,0.002594
-0.069123,-0.025788,-0.1323,-0.092317,-0.012055,-0.0032044,0.18357,0.039216
-0.030671,0.0062562,-0.095064,-0.10391,-0.02884,0.014801,0.15244,0.038911
0.023651,-0.10269,-0.019074,-0.103,-0.035554,-0.016327,-0.15763,0.059968
0.022126,-0.063325,-0.023651,-0.1033,-0.0010681,-0.10666,-0.59281,0.027314
0.041047,-0.12345,-0.0013733,-0.02945,-0.00015259,-0.0086976,-0.17716,0.055085
0.025177,-0.07187,-0.057221,-0.05478,0.011749,0.043488,0.28977,0.041352
-0.0041199,-0.074006,-0.028229,-0.030365,0.035248,0.032197,0.23423,0.019379
-0.010834,-0.10361,-0.01297,-0.045014,0.036774,0.097505,0.1564,0.0065614
-0.028534,-0.072175,-0.0053407,-0.022431,0.096284,0.0972,-0.061799,-0.049287
0.029755,-0.10666,-0.029755,-0.044709,0.11887,0.048371,-0.12161,-0.044404
0.0032044,-0.053559,-0.070039,-0.076448,0.077668,-0.19486,-0.12833,-0.059663
0.0028992,-0.011444,-0.081331,-0.084382,0.036774,-0.17868,-0.12741,-0.055695
-0.058137,-0.017548,-0.077058,-0.10178,0.01297,0.090486,0.0071717,-0.011139
-0.090181,0.052033,-0.10361,-0.10636,-0.022736,0.060578,0.06302,0.071565
-0.099947,0.09659,-0.11032,-0.094453,-0.040742,0.024872,0.059663,0.12375
-0.10697,0.089876,-0.096895,-0.11307,-0.056001,0.019989,0.069123,0.10391
-0.13382,0.094759,-0.10727,-0.12711,-0.063325,0.024262,0.050507,0.07126
-0.10208,-0.042878,-0.073091,-0.10788,-0.070039,0.042878,0.077974,0.098726
-0.082246,-0.011749,-0.065156,-0.0972,-0.05539,0.050507,0.08957,0.092317
-0.042878,-0.0038148,-0.048676,-0.14115,-0.037385,0.026398,0.032807,0.019074
0.0041199,-0.030671,-0.034638,-0.065766,-0.026398,0.0383,0.0090028,-0.023651
0.016938,-0.033722,-0.056306,-0.14755,0.011749,0.0032044,-0.011139,-0.045319
0.06363,-0.095674,-0.026703,0.13626,0.024872,-0.0010681,-0.019074,-0.058747
0.076143,-0.19608,0.018769,-0.027314,0.042267,0.018158,-0.0044251,-0.084382
0.041047,-0.18235,0.055695,-0.20157,0.088655,-0.013581,-0.013275,-0.11826
0.017243,-0.14023,-0.019074,0.027924,0.081636,-0.0016785,0.011444,-0.06363
0.032197,-0.22568,-0.018769,0.016632,0.086824,0.010834,-0.022126,-0.031281
-0.026398,-0.16495,-0.11765,-0.030671,0.056306,-0.005951,-0.17563,-0.053559
-0.0068666,0.074311,-0.078279,-0.044099,-0.002594,-0.010224,-0.019684,-0.024262
-0.045319,0.14267,-0.13077,-0.15366,0.0041199,0.013886,0.1268,0.0028992
-0.098116,0.12589,-0.10941,-0.17014,0.040131,0.041657,0.1207,0.023651
-0.072175,0.058442,-0.13291,-0.14115,0.025177,0.034638,-0.12436,0.06363
-0.059663,-0.020905,-0.070954,-0.068818,0.0090028,-0.0056458,-0.024567,0.094148
-0.042878,-0.065766,-0.00045777,-0.030365,-0.011444,-0.11063,0.056001,0.12375
-0.052033,0.033722,-0.092927,-0.10697,0.0047303,-0.024872,0.051423,0.103
-0.040742,0.017548,-0.086824,-0.12253,-0.036774,0.098421,0.19944,0.12894
-0.039521,-0.023957,-0.041657,-0.09659,-0.098421,0.062715,0.29252,0.034333
-0.043488,0.0022889,-0.036469,-0.063325,-0.013275,-0.053864,0.20859,-0.057832
0.0032044,-0.097505,0.018158,-0.0086976,0.01297,-0.03006,-0.34073,-0.069734
0.037079,-0.13901,-0.023957,-0.025177,0.024872,0.033417,-0.89799,-0.10849
-0.022736,-0.098726,-0.024567,-0.080415,0.045014,0.055695,0.25193,-0.053254
-0.011444,-0.075837,-0.047761,-0.15671,0.02884,0.034028,0.59495,0.062409
0.005951,-0.071565,-0.04654,-0.0795,0.051118,0.0032044,0.48539,0.038911
-0.011139,-0.030671,-0.070344,0.1323,0.048981,-0.0074769,0.15427,-0.018158
-0.061799,0.02945,-0.10147,-0.22599,0.060273,-0.050507,-0.91142,-0.095979
-0.043183,-0.023346,-0.047761,-0.037079,-0.04593,0.052949,-0.50797,-0.038605
-0.054475,0.017853,-0.098116,-0.081331,-0.042573,0.022736,0.61906,0.013886
-0.10208,0.026398,-0.10361,-0.17105,-0.0056458,-0.074617,-0.16861,-0.023346
-0.10422,-0.01236,-0.066377,-0.078279,-0.041352,0.058442,-0.099336,0.06424
-0.059052,0.010529,-0.034943,-0.069734,0.041047,0.10086,0.028229,0.10666
-0.084993,0.12467,-0.036164,-0.020905,0.0080873,0.085603,0.22385,0.10178
-0.059968,0.002594,-0.079194,-0.1268,-0.059052,-0.0050355,0.21592,0.16678
-0.0028992,-0.07248,-0.084077,-0.25406,-0.0028992,-0.065461,-0.36606,0.16251
0.051118,-0.086824,-0.084382,-0.079805,-0.026398,0.01297,-0.09781,0.0383
0.041962,-0.14633,-0.042573,-0.0050355,0.0050355,0.083467,0.52964,-0.0010681
0.039826,-0.21347,0.011444,0.0038148,0.027008,0.034333,0.12436,-0.052644
0.057527,-0.18235,0.012055,0.0032044,0.00045777,0.035554,0.074311,-0.05478
0.05539,-0.10971,0.024872,-0.11246,0.035554,-0.00015259,0.080415,-0.099336
0.020905,-0.070039,-0.068208,-0.19821,0.091402,-0.12467,-0.42313,-0.11246
-0.023346,-0.02884,-0.066987,-0.034333,0.092317,-0.095979,-0.50706,-0.085603
-0.048676,-0.018769,-0.094759,0.050813,0.073701,0.034943,0.16403,-0.0053407
-0.039216,0.059663,-0.10269,-0.019074,0.052949,0.073701,0.35721,0.0090028
-0.051728,0.053254,-0.048371,-0.14054,0.0071717,0.027008,0.019684,-0.0056458
-0.099031,0.031281,-0.037995,-0.11185,-0.030365,-0.0090028,0.089265,0.026703
-0.1207,0.11154,-0.076448,-0.08957,-0.026703,0.0071717,0.086824,0.062409
-0.070954,0.06363,-0.14511,-0.067292,-0.011444,0.005951,-0.010224,0.11643
-0.032502,0.054475,-0.1326,-0.10575,-0.025177,-0.044099,-0.08072,0.077974
-0.039521,0.030365,-0.066682,-0.10575,-0.040742,0.032502,0.095369,0.019989
-0.025788,-0.077363,-0.0028992,-0.072786,-0.043488,0.049287,0.2153,-0.0096132
0.0383,-0.13779,-0.033112,-0.027008,-0.030976,0.0062562,-0.089876,-0.0047303
0.014801,-0.08011,-0.024262,-0.039521,0.015717,-0.036469,-0.35264,-0.023041
-0.013275,-0.043488,-0.03769,-0.059052,0.043488,-0.049592,-0.16098,0.0206
-0.017548,-0.12894,-0.0206,-0.075532,0.035554,0.018158,0.12528,0.027924
-0.0090028,-0.081636,-0.024872,-0.084382,0.039216,0.030976,0.12253,0.0071717
-0.013275,-0.1735,0.020905,-0.056306,0.021515,0.036164,0.26566,0.033722
-0.010834,-0.26017,-0.051118,-0.054475,0.016632,0.084382,0.2089,-0.0041199
-0.0010681,-0.088655,-0.063325,-0.06363,0.033722,0.066377,0.079805,-0.033112
-0.014191,0.022126,-0.068513,-0.083467,0.042878,0.015106,-0.086213,-0.061494
-0.053559,0.048676,-0.086519,-0.098421,0.032807,-0.013275,-0.29404,-0.048676
-0.061189,0.049287,-0.08957,-0.08835,0.0071717,-0.016022,-0.10239,-0.016938
-0.083467,0.075532,-0.11154,-0.11643,-0.022736,0.0041199,-0.019379,-0.030671
-0.075532,0.062715,-0.10697,-0.11185,-0.041962,0.009308,0.017243,0.016938
-0.084077,0.07126,-0.091096,-0.10147,-0.05478,0.028534,0.1146,0.096284
-0.08011,0.07248,-0.090181,-0.081331,-0.042878,0.017243,0.073396,0.14115
-0.061494,0.013275,-0.066682,-0.062409,-0.033112,0.032197,0.049897,0.10697
-0.043793,-0.0053407,-0.044709,-0.0086976,0.0074769,-0.025788,-0.0065614,0.053254
-0.016327,-0.044099,-0.041047,0.02945,0.059358,-0.056001,-0.044709,0.033722
0.040436,-0.11154,-0.0206,-0.16953,0.051423,0.0077821,-0.022431,0.039826
0.041352,-0.10025,-0.036469,-0.19394,0.060273,-0.010834,-0.029145,-0.019684
0.052033,-0.11582,-0.032502,-0.0383,0.050507,-0.011749,-0.0041199,-0.047456
0.056611,-0.12558,-0.016327,-0.034333,0.014191,0.036469,0.039521,-0.045014
0.039216,-0.14939,0.016632,-0.032197,0.029755,0.0013733,-0.010529,-0.082856
0.038911,-0.12345,-0.031586,-0.053254,0.02121,0.015106,-0.017548,-0.091402
0.035248,-0.08957,-0.055085,-0.06424,0.025177,0.0032044,-0.023041,-0.10544
0.0016785,-0.047456,-0.049287,-0.052644,0.0099184,-0.0053407,-0.024567,-0.099641
-0.06302,0.025177,-0.081025,-0.076753,-0.0062562,-0.10361,-0.035859,-0.041657
-0.12039,0.098116,-0.11368,-0.1088,0.0206,-0.10666,-0.020294,0.017548
-0.098116,0.071565,-0.10544,-0.121,0.017243,-0.0096132,-0.033112,0.075837
-0.094148,0.089876,-0.10452,-0.10452,-0.023651,0.21561,0.12833,0.095369
-0.10788,0.034028,-0.084382,-0.10513,-0.046845,0.35325,0.17472,0.1091
-0.13687,0.022736,-0.094759,-0.1326,-0.032807,-0.073701,0.2501,0.15396
-0.1091,-0.0047303,-0.066682,-0.086519,-0.036469,-0.09659,0.35294,0.12467
-0.0795,-0.051423,-0.045014,-0.061494,-0.039826,0.026093,-0.13352,0.036164
-0.023041,-0.083772,-0.0074769,-0.058442,-0.021515,-0.039216,-0.83207,0.02121
0.050202,-0.10147,-0.022126,-0.038605,0.0065614,0.024872,0.14786,0.092622
0.049287,-0.07187,0.010529,-0.033112,0.036164,0.016022,0.15915,0.062104
0.052338,-0.04593,-0.036469,-0.13993,0.042267,0.0065614,0.010529,0.042267
0.044099,-0.066377,-0.02884,0.22599,0.064546,0.0010681,0.063325,0.005951
0.02884,-0.14237,-0.036164,-0.16495,0.082246,-0.017243,-0.0068666,-0.051423
0.027008,-0.15366,-0.05417,-0.073091,0.019074,0.06363,0.019989,-0.075532
0.0056458,-0.14237,-0.058747,-0.057221,0.0056458,0.0795,0.085298,-0.088045
-0.0035096,-0.12222,-0.081025,-0.10941,0.0041199,0.0080873,0.020294,-0.11429
-0.049897,-0.0041199,-0.069429,-0.15335,0.029755,-0.033417,-0.024872,-0.0972
-0.085298,0.091096,-0.073091,-0.046845,0.04593,-0.11276,-0.010224,-0.037385
-0.11124,0.12161,-0.12222,-0.068818,0.026703,-0.018158,0.10391,0.0010681
-0.12009,0.092622,-0.10483,-0.15671,-0.053559,0.056306,0.085908,0.065156
-0.11856,0.065766,-0.095979,-0.13046,-0.08835,0.024872,-0.092927,0.10452
-0.069429,0.029755,-0.046845,-0.076753,-0.012055,-0.077363,-0.35386,0.092927
-0.010834,0.059358,-0.050813,-0.074311,0.005951,-0.010834,0.16526,0.087434
-0.038911,0.01236,-0.074311,-0.14939,-0.0035096,0.041047,0.20127,0.030976
-0.044404,-0.070039,-0.045014,-0.073091,-0.02121,-0.022126,-0.11917,0.02884
0.0096132,-0.092622,-0.045624,-0.0083925,-0.040742,0.036164,0.33371,0.033722
0.04715,-0.10361,-0.012665,-0.00015259,-0.024872,0.066377,0.49668,-0.016938
0.065156,-0.19181,0.023346,-0.093233,0.081636,0.0032044,-0.309,-0.10727
0.099947,-0.24094,0.0086976,-0.14939,0.11429,0.032807,-0.6807,-0.11948
0.094759,-0.2623,0.016632,0.043793,0.082551,0.012055,0.31022,-0.069734
0.10636,-0.1384,-0.10544,0.005951,0.076753,-0.08957,-0.15824,-0.11643
0.057832,-0.061494,-0.026398,-0.13535,0.055085,-0.12772,-0.62089,-0.11032
-0.0080873,0.069734,-0.11093,-0.06424,-0.030365,0.052644,0.067903,-0.051118
-0.098116,0.081941,-0.084382,-0.16251,-0.0080873,0.072175,0.37919,0.032807
-0.15549,0.08072,-0.103,-0.13535,0.009308,0.009308,0.095979,0.088655
-0.10849,0.073091,-0.086213,-0.048676,-0.023651,0.048371,0.1912,0.099641
-0.096895,0.099641,-0.084382,-0.010834,-0.04593,0.014496,0.10483,0.095369
-0.1146,0.15824,-0.15488,-0.13901,-0.051423,-0.005951,0.059663,0.066377
-0.11734,0.11398,-0.11612,-0.13565,-0.051118,0.0065614,-0.18509,0.033417
-0.061799,-0.092317,-0.029145,-0.05417,-0.032197,0.0086976,-0.21836,0.094759
-0.033112,-0.038911,-0.041657,-0.010224,-0.0083925,0.051118,0.32975,0.11795
-0.022736,-0.072786,-0.013886,-0.060273,0.027619,0.034028,0.15946,0.0795
0.0016785,-0.28763,0.076753,-0.058747,0.047456,0.03006,-0.010224,0.046235
0.0050355,-0.24277,-0.0383,-0.10361,0.094453,0.049592,0.009308,0.033722
0.021515,-0.043488,-0.050813,-0.077363,0.051728,-0.014191,-0.025788,-0.002594
0.017853,-0.010529,-0.0086976,-0.044709,-0.0032044,-0.16007,-0.10391,-0.031281
