0.035859,-0.14145,-0.11978,-0.069734,-0.05478,0.036469,0.25406,0.19364
0.061494,-0.023957,-0.14664,-0.092622,-0.0206,-0.0056458,0.048981,0.15122
0.0074769,0.0022889,-0.066987,-0.087739,0.016632,-0.037385,-0.92729,-0.039826
-0.051423,0.062715,-0.013886,-0.09659,-0.034638,0.037995,-0.24887,-0.032807
-0.027619,-0.091402,0.084382,-0.07248,-0.035554,0.053559,0.26261,0.0010681
-0.0028992,-0.099947,0.017243,0.0028992,-0.025177,0.030671,0.061189,-0.0028992
0.053864,-0.095369,-0.00045777,-0.15213,0.02182,0.0090028,0.077974,0.00076295
0.046235,-0.032197,0.002594,-0.060578,0.060578,-0.017853,0.037995,-0.034638
0.029755,-0.048066,-0.11276,-0.042267,0.060273,-0.023346,0.083467,-0.075837
0.0086976,-0.103,-0.038605,-0.02884,0.053559,0.0068666,0.052033,-0.053559
-0.027008,-0.081331,-0.030976,-0.036164,0.039216,0.040436,0.019379,-0.029145
-0.093538,-0.044404,-0.084993,-0.028534,0.016632,0.04715,0.12619,-0.049897
-0.13413,0.11826,-0.11765,-0.026398,0.013275,0.016022,0.17502,-0.03769
-0.087129,0.015106,-0.038911,-0.20737,0.0053407,0.036774,0.19364,0.032807
-0.057832,0.022736,-0.11887,-0.17563,0.013581,0.023957,0.22019,0.074311
-0.04593,0.049592,-0.065766,-0.068818,0.0041199,-0.021515,-0.38651,0.049592
-0.030671,0.04654,-0.11734,-0.075227,-0.037079,-0.028229,-0.79515,0.0795
-0.014496,-0.046845,-0.098421,-0.07248,-0.028534,-0.00015259,0.15915,0.11612
-0.030671,-0.046845,-0.073396,-0.092927,-0.022126,-0.013275,0.16098,0.034028
-0.039216,-0.0074769,-0.037079,-0.12589,-0.018769,-0.0068666,0.084382,0.021515
-0.087434,-0.036774,-0.027924,-0.10971,-0.013581,0.016938,0.12863,0.028229
-0.060578,-0.08896,-0.032502,-0.041657,-0.0050355,0.025177,0.052033,0.057221
-0.002594,-0.1323,-0.040742,-0.048676,-0.0056458,0.045624,0.065461,0.088655
0.041352,-0.066377,-0.10361,-0.059663,-0.018463,0.052644,0.045014,0.02945
0.17288,-0.20859,0.078584,0.0077821,0.023041,0.017243,0.012665,-0.0090028
0.024262,-0.036469,-0.028229,-0.017548,0.12833,-0.080415,-0.084993,-0.15061
-0.0044251,-0.074006,-0.034333,-0.028229,0.12192,-0.034333,0.002594,-0.10605
-0.014191,-0.034638,-0.038605,-0.033417,0.037995,0.055695,0.17502,0.033722
-0.00076295,-0.012665,-0.091096,-0.06302,0.041962,0.020905,0.054475,-0.014801
-0.059968,-0.010834,-0.074922,-0.05539,0.043793,-0.0077821,0.0053407,-0.054475
-0.13474,0.052338,-0.11765,-0.10178,0.023041,-0.031281,-0.030976,-0.024262
-0.1677,0.029145,-0.069123,-0.17899,0.014801,-0.0077821,-0.20066,0.027924
-0.15244,0.023651,-0.10483,-0.15854,-0.047456,0.053254,-0.025177,0.10819
-0.12772,0.084077,-0.13748,-0.14786,-0.087739,-0.00015259,0.066682,0.076448
-0.10513,0.25772,-0.10941,-0.13962,-0.087739,-0.0056458,0.0096132,0.048981
-0.051728,0.059663,-0.067903,-0.10788,-0.078279,0.016938,0.011444,0.024872
0.05417,-0.19486,-0.0096132,-0.037385,-0.055695,0.035554,-0.015106,0.019989
0.10666,-0.25467,-0.00045777,0.041047,-0.014801,0.048981,0.035248,0.022736
0.093843,-0.26017,0.044404,-0.010529,0.026093,0.019074,0.041047,-0.020294
0.061494,-0.13169,0.0083925,-0.10117,0.06363,-0.009308,0.13718,-0.088045
0.034028,-0.098116,-0.048676,-0.061189,0.054475,0.026093,0.17899,-0.066987
-0.015717,-0.045624,-0.012665,-0.016022,0.069123,0.024567,0.018158,-0.033112
-0.015412,-0.039826,-0.0206,-0.059052,0.076143,-0.024262,-0.2153,-0.022736
-0.029145,-0.074311,-0.049287,-0.14176,0.050202,-0.041962,-0.28946,-0.015106
-0.017243,-0.08011,-0.06302,-0.23941,0.00076295,0.036469,0.039521,0.042267
-0.014191,-0.054475,-0.09659,0.29038,-0.04715,0.041657,0.19577,0.045624
-0.01236,0.052338,-0.14694,-0.17014,-0.017243,-0.027619,-0.015717,0.014801
-0.016938,0.13413,-0.10971,-0.16739,0.031586,0.024872,0.063935,0.025177
-0.030365,0.035859,-0.12253,-0.05417,0.036774,0.063325,0.19272,0.0038148
-0.082856,-0.13474,-0.065766,-0.13565,0.037079,-0.035248,0.084382,-0.0074769
-0.12345,-0.0035096,-0.090791,-0.11948,0.012055,-0.059052,-0.024567,0.032197
-0.096895,0.092317,-0.070954,-0.05478,-0.052644,-0.065766,-0.25895,0.11154
-0.043793,0.078584,-0.026703,-0.050813,-0.046845,-0.037385,-0.34134,0.10391
-0.0096132,0.0056458,-0.04715,-0.086519,-0.0383,0.072175,0.18448,0.071565
0.045014,-0.065766,0.010529,-0.005951,-0.015412,0.053254,0.20035,0.036164
-0.0044251,-0.005951,-0.016632,-0.070344,-0.0068666,0.025177,0.088655,0.0096132
-0.032807,-0.099336,-0.013581,-0.038605,0.016632,0.024872,0.077668,-0.035859
-0.010224,-0.074006,-0.10727,-0.069123,0.084382,-0.010224,-0.026703,-0.095674
0.0041199,0.01236,0.017548,-0.078889,0.11582,-0.02182,-0.31907,-0.15061
0.017243,-0.18357,0.0022889,-0.040131,0.027008,0.050202,-0.11582,-0.11521
0.0053407,-0.11093,-0.079194,-0.093843,-0.0013733,0.026398,0.11887,-0.059968
0.019684,-0.096284,-0.032807,-0.083162,0.0074769,-0.042878,-0.02945,-0.039521
0.011749,-0.14267,-0.025483,-0.10513,0.052033,-0.068513,-0.056001,0.022736
-0.065461,-0.21225,-0.068208,-0.14054,0.05417,-0.0086976,0.002594,0.06424
-0.049897,-0.15457,-0.07126,-0.071565,-0.036469,0.023041,0.16648,0.076753
-0.096895,0.19181,-0.16312,-0.089265,-0.0383,0.009308,0.10788,0.062409
-0.15457,0.19211,-0.10849,-0.073091,0.0019837,-0.0068666,0.0068666,0.039216
-0.12558,0.13626,-0.1268,-0.12284,-0.031281,0.013275,0.025788,0.1323
-0.11582,0.066072,-0.061799,-0.056916,-0.045624,0.030365,0.076448,0.10544
-0.10208,0.080415,-0.078889,-0.095064,-0.048981,0.052949,0.14145,0.066682
-0.035554,0.037995,-0.045014,-0.11521,-0.036469,0.073091,0.19516,0.094148
0.036164,-0.072786,-0.028534,-0.084382,-0.013275,0.067597,0.20706,0.0795
0.055085,-0.15335,-0.0041199,-0.034943,0.0053407,0.034028,-0.05478,0.027008
0.073396,-0.23697,0.034028,0.027619,-0.0044251,0.015412,-0.48814,-0.045319
0.10849,-0.17472,-0.0044251,-0.019074,0.066377,-0.014801,-0.12772,-0.086213
0.033417,-0.095674,-0.052644,-0.06363,0.10269,-0.034943,0.019684,-0.15976
-0.0044251,-0.058442,-0.046235,-0.076448,0.053254,0.0010681,0.044404,-0.12192
-0.038911,-0.084993,-0.052338,-0.087739,0.034028,0.020294,0.072786,-0.065156
-0.054475,-0.046235,-0.066682,-0.082246,-0.0010681,0.040436,0.034028,-0.01297
-0.035554,-0.024872,-0.062715,-0.066987,0.0010681,0.018158,0.012055,0.035554
-0.037385,0.088045,-0.15396,-0.030365,0.019684,0.0062562,-0.031281,0.018769
-0.069429,0.05539,-0.1149,-0.25284,-0.002594,-0.0035096,-0.010529,0.0077821
-0.077363,0.073091,-0.12985,-0.26566,-0.00076295,-0.018158,0.04715,0.025483
-0.056001,0.033112,-0.024262,0.20737,-0.061494,-0.0071717,0.042267,0.058442
-0.076753,0.0383,-0.090181,-0.18906,-0.013581,-0.060578,-0.0068666,0.029755
-0.056611,-0.012055,-0.06424,-0.044099,-0.075837,0.010529,-0.0090028,0.055695
-0.049287,0.03769,-0.062104,-0.0019837,-0.04654,0.023346,0.0035096,0.06424
0.032197,-0.022126,-0.026703,-0.079805,0.030365,-0.0032044,-0.019074,0.067597
-0.0062562,-0.083772,-0.023957,-0.22538,0.087434,-0.0032044,0.066377,0.013886
-0.034943,-0.15457,-0.014801,-0.049287,0.098421,0.0086976,0.19974,-0.029145
-0.022126,-0.12802,0.0047303,-0.020905,0.002594,0.022736,0.2327,-0.0096132
0.055695,-0.16892,-0.044099,-0.0068666,0.0050355,0.057527,0.21927,-0.023041
0.058442,-0.16434,-0.00045777,-0.027314,0.048981,0.0013733,-0.73014,-0.1146
0.059663,-0.17502,-0.010224,-0.059663,0.05539,-0.0077821,-0.36362,-0.090181
-0.0041199,-0.082856,-0.062715,-0.081331,0.043793,0.044099,0.57237,-0.026703
-0.11246,0.098116,-0.15702,-0.10117,0.031281,0.011444,0.262,0.009308
-0.10941,0.11582,-0.13169,-0.1146,-0.018158,0.046235,0.11643,0.09781
-0.070039,0.021515,-0.085298,-0.064851,-0.057221,0.029145,-0.11429,0.1268
-0.027619,-0.068818,0.013275,0.069734,-0.037079,-0.04593,-0.83268,0.065766
-0.024262,0.044404,-0.065766,-0.041047,0.014801,-0.059968,-0.053864,0.067597
-0.066072,0.064546,-0.11887,-0.19303,0.021515,-0.033722,0.27726,0.044099
-0.11063,0.056611,-0.11551,-0.20066,-0.02121,0.0080873,0.097505,0.023957
-0.14817,0.044099,-0.062409,-0.089876,-0.030671,0.041352,0.16281,0.083467
-0.014496,-0.061799,-0.05478,-0.094453,-0.019074,0.048676,0.10025,0.11368
0.065766,-0.17227,-0.043793,-0.068208,-0.00076295,0.026703,0.031891,-0.029145
0.031586,0.022736,-0.026093,-0.079194,0.0047303,0.0065614,0.020905,-0.11368
0.0053407,-0.095369,0.015412,-0.059052,0.023651,0.0028992,0.009308,-0.08072
-0.029145,-0.10147,-0.0096132,0.029755,0.015717,0.046235,0.019684,-0.070039
-0.049897,-0.0016785,-0.030365,0.042573,0.026093,0.049592,0.048371,-0.058747
0.065156,-0.058137,-0.023041,-0.13718,0.049897,0.024567,0.0086976,-0.020905
0.056611,-0.10239,-0.051118,-0.17411,0.059968,-0.027314,0.02121,-0.042573
0.03769,-0.11093,-0.0383,-0.03006,0.047761,-0.02121,0.059663,-0.058137
-0.0071717,-0.12619,-0.07187,-0.078889,0.013581,0.028534,-0.01236,0.0080873
-0.040742,-0.021515,-0.10361,-0.121,0.0010681,0.030976,-0.010834,0.06302
-0.11978,0.069734,-0.1268,-0.12894,-0.042573,0.0044251,0.026703,0.056001
-0.08835,0.086213,-0.14939,-0.067597,-0.029755,-0.034028,0.002594,0.079194
-0.066072,0.14786,-0.074311,-0.022431,-0.013275,-0.033112,-0.0013733,0.075532
-0.084077,0.0013733,-0.08835,-0.099031,0.019989,-0.024872,-0.011444,0.0383
-0.083467,0.0083925,-0.15854,-0.18265,0.013886,-0.011749,-0.0083925,0.048371
-0.011139,-0.070039,0.011749,-0.11521,-0.051423,0.034638,0.034028,0.065766
0.056306,-0.23056,0.069123,-0.038605,-0.058747,0.038605,0.023957,0.03769
0.07187,-0.31357,0.025788,-0.014191,-0.00045777,0.026398,0.0047303,0.026703
0.0071717,-0.10178,-0.010834,-0.02945,0.059968,-0.0038148,0.005951,-0.017548
-0.031891,0.0019837,-0.05417,-0.079805,0.053559,0.0022889,0.047456,-0.059358
0.017548,-0.00045777,-0.068513,-0.070954,0.0383,0.03006,-0.0047303,-0.073091
0.0016785,0.0062562,-0.018769,-0.025177,0.031586,0.041657,-0.056001,-0.13016
0.017548,-0.066987,-0.00015259,-0.023041,0.040436,0.021515,-0.030671,-0.10178
-0.032807,-0.00076295,-0.076753,-0.076448,0.052033,-0.015717,0.011444,-0.0028992
-0.074006,0.1033,-0.10758,-0.06363,0.045624,-0.022126,0.05417,0.036164
-0.095979,0.022126,-0.078279,-0.031281,0.026703,0.0032044,0.21195,0.08835
-0.08835,-0.052338,-0.084077,-0.093233,-0.017243,0.037079,0.28183,0.11246
-0.059968,-0.041962,-0.11368,-0.17533,-0.038605,0.034638,0.13626,0.10605
-0.014191,0.013886,-0.16709,-0.14939,-0.011444,-0.055695,-0.28428,0.010529
-0.085603,0.047761,-0.18479,-0.11704,-0.014801,-0.077974,-0.71489,-0.033112
-0.020294,0.0035096,0.032197,-0.066987,-0.031281,-0.029755,-0.20462,0.046845
-0.078279,0.083467,-0.010834,-0.10758,-0.0050355,0.010529,0.15335,0.056306
-0.084993,-0.10025,0.0016785,-0.052949,-0.026703,0.050813,0.25284,0.076753
-0.057832,-0.085603,-0.066682,-0.024872,-0.031281,0.056611,0.20676,0.103
0.052033,-0.25437,-0.020905,-0.0083925,0.02121,0.032807,0.16526,0.077363
0.023041,-0.021515,-0.032502,-0.067292,0.050202,0.0044251,0.051728,-0.010224
0.013581,-0.083467,-0.018769,-0.077363,0.027008,0.016938,-0.012665,-0.051423
0.0028992,-0.078584,-0.011749,-0.049592,0.015717,0.018463,0.0035096,-0.052644
0.02121,-0.11246,-0.026703,-0.058442,0.016632,0.022126,0.017243,-0.058137
0.027314,-0.21561,-0.039826,-0.050202,0.017243,0.022431,0.028229,-0.072175
0.005951,-0.13138,-0.03769,-0.033417,0.011444,-0.010834,-0.010224,-0.082856
-0.035859,0.059663,-0.16861,-0.12528,0.052338,-0.016938,-0.014496,-0.086213
-0.067597,0.11368,-0.077974,-0.13779,0.079805,0.012055,-0.0383,-0.032502
-0.075532,0.15244,-0.076753,-0.1088,0.026093,-0.0056458,-0.14664,-0.028534
-0.034333,0.26658,-0.17014,-0.13138,-0.041352,-0.005951,0.012055,0.02884
-0.052644,0.22171,-0.12985,-0.083772,-0.084993,0.025483,0.065156,0.05417
-0.085908,-0.036469,-0.037995,-0.13535,-0.061799,0.018463,0.044099,0.081331
-0.04593,-0.29191,0.078584,-0.099947,-0.028229,-0.0053407,0.036774,0.091707
-0.05478,-0.086213,-0.033112,-0.018769,-0.033112,0.025483,0.050507,0.10849
0.020905,-0.12467,-0.026398,-0.027619,-0.00045777,0.026093,0.039216,0.086824
0.019989,-0.075532,-0.10025,-0.027619,0.03769,-0.022126,-0.018769,-0.019379
0.01297,-0.17624,-0.11246,-0.22812,0.023651,-0.0019837,-0.05478,-0.033722
0.019074,-0.14633,-0.039826,0.036774,0.0047303,0.023957,0.019684,-0.033417
0.013886,-0.025788,0.0035096,0.11368,0.094759,0.01297,0.16068,-0.0206
-0.0068666,-0.0077821,-0.0083925,-0.22751,0.12284,0.039216,0.097505,-0.024262
-0.027314,-0.066377,0.032502,-0.050507,0.023346,0.037385,-0.016632,-0.026398
-0.014801,-0.022126,-0.044099,0.019989,0.036164,-0.074617,-0.24979,-0.034638
-0.012665,-0.061799,-0.11429,-0.052949,0.041352,-0.029755,-0.23667,-0.033112
-0.035248,-0.05478,-0.07248,-0.10727,0.027314,0.073701,0.23697,-0.015412
-0.11337,0.10819,-0.13046,-0.15396,-0.018769,0.02945,0.1088,0.023957
-0.096895,-0.0065614,-0.098726,-0.12528,-0.059052,0.022126,-0.010224,0.041047
-0.051118,0.011749,-0.062409,-0.055085,-0.068513,0.018158,0.015412,0.0795
-0.086213,0.16251,-0.077363,-0.16861,0.0019837,-0.037385,-0.0050355,0.059663
-0.053559,-0.019989,-0.061189,-0.12039,-0.012665,0.010224,0.097505,0.049592
-0.022736,-0.1503,-0.077058,-0.0013733,-0.063935,0.022126,0.035554,0.053559
-0.019379,-0.085603,-0.063325,-0.14481,-0.01236,-0.029755,-0.08896,0.027619
-0.012665,-0.041962,-0.057221,-0.095674,0.016938,-0.013275,0.03769,0.0068666
0.0016785,-0.0019837,-0.043793,-0.021515,-0.012665,0.036774,0.11673,-0.0022889
0.002594,-0.046235,-0.0080873,0.02121,-0.0056458,0.048371,0.16922,-0.0062562
0.010834,-0.046235,-0.013581,-0.014801,0.053864,0.01297,0.0035096,-0.018158
-0.010834,-0.044099,0.0041199,-0.039216,0.073701,-0.046235,-0.48081,-0.044709
-0.010529,-0.083772,0.016632,-0.077363,0.038911,-0.0071717,-0.11582,-0.018158
-0.045624,-0.11215,-0.029755,-0.25711,0.022126,0.066682,0.17533,-0.0035096
-0.026703,-0.1915,-0.07126,-0.077058,0.019379,0.045624,0.055695,-0.015412
0.02182,-0.048676,-0.13687,0.010834,0.026703,0.0068666,-0.049897,0.0099184
0.0016785,0.043488,-0.11429,-0.09659,0.042267,0.018158,0.049592,-0.01236
-0.051118,0.034028,-0.078889,-0.051728,0.01297,-0.023957,0.012055,-0.042878
-0.10117,0.15946,-0.094148,-0.12497,0.026093,-0.059968,0.0041199,0.042267
-0.092012,0.061189,-0.08957,-0.094759,-0.002594,-0.014801,0.089265,0.13901
-0.021515,-0.05417,-0.066987,-0.05417,-0.032807,0.041352,0.10269,0.12253
-0.017548,-0.13748,-0.1445,-0.10239,-0.02121,0.0383,0.17777,0.076753
-0.091096,0.12314,-0.081025,-0.28794,-0.010224,-0.009308,0.215,0.026703
-0.075227,0.0071717,-0.019074,0.14786,-0.057527,0.042878,0.1976,0.057527
-0.033112,-0.059968,-0.012665,-0.010529,-0.05478,0.044709,0.17227,0.045624
0.069429,-0.17502,-0.0090028,0.02945,0.027008,-0.0086976,-0.31205,-0.0028992
0.079805,-0.14176,-0.030671,-0.076448,0.064546,-0.0080873,-0.88853,-0.058747
0.011749,-0.066377,-0.021515,-0.14908,0.1207,-0.013886,0.045319,-0.058747
-0.020905,-0.05478,0.016632,-0.062715,0.051118,0.049287,0.24796,-0.039826
-0.022126,-0.22873,0.068208,-0.040742,0.011444,0.048371,0.090181,-0.05478
-0.031586,-0.13993,-0.094148,-0.048981,0.0032044,0.010834,0.082551,-0.045319
-0.022736,-0.045624,-0.055085,-0.084382,0.035248,-0.0013733,0.036774,-0.045624
-0.016632,0.010224,-0.10025,-0.1033,0.023651,0.00045777,0.034333,-0.043793
-0.059052,0.21225,-0.10086,-0.13962,0.00076295,0.018158,0.024262,-0.034943
-0.051118,0.14878,-0.091402,-0.061494,-0.025177,0.024262,0.03006,0.015412
-0.035859,-0.10483,-0.082246,0.0099184,-0.024567,0.002594,0.020905,0.037995
-0.092012,-0.036774,-0.13138,-0.069429,0.018769,-0.058442,-0.033417,0.023957
-0.12833,0.13748,-0.11154,-0.26047,-0.014801,-0.018769,0.018769,0.085603
-0.16434,0.08072,-0.10544,-0.14786,-0.031281,0.01297,0.062409,0.085908
-0.077363,-0.057832,-0.056916,-0.090791,-0.030671,0.034028,0.06302,0.09659
-0.045319,-0.072786,-0.0056458,-0.024262,-0.035859,0.031586,0.065766,0.089876
0.023957,-0.062409,-0.030671,-0.059052,0.04593,-0.012665,0.0068666,0.049592
0.10056,-0.121,-0.018463,-0.10361,0.075227,-0.0013733,-0.0032044,0.036164
0.10208,-0.10697,-0.017853,-0.043183,0.0019837,0.02121,-0.02884,-0.061799
0.12375,-0.16678,-0.017853,-0.027619,-0.014496,0.017243,0.0032044,-0.093843
0.121,-0.17685,-0.027008,-0.0206,0.021515,0.012665,0.092622,-0.08835
0.033417,-0.13016,-0.00076295,-0.038911,0.013886,0.045624,0.19699,-0.081636
0.0099184,-0.10697,0.016022,0.00045777,0.033417,0.040436,0.17044,-0.03769
-0.085908,0.053254,-0.072786,-0.092927,0.069734,0.019074,0.19577,-0.013275
-0.16434,0.26383,-0.21225,-0.17075,0.079805,-0.052949,-0.59495,-0.037079
-0.15885,0.15061,-0.11856,-0.12802,0.029755,-0.048371,-0.58579,-0.0062562
-0.15274,0.098421,-0.099031,-0.14939,-0.031586,0.0010681,0.29068,0.06424
-0.0074769,-0.27481,-0.057221,-0.072786,-0.058442,0.014191,-0.009308,0.103
-0.037079,-0.16159,-0.168,-0.051728,-0.041657,0.0071717,0.059358,0.086519
-0.036469,-0.053559,-0.00015259,-0.053254,0.012665,-0.024262,0.121,0.10636
-0.068208,0.010224,0.072786,-0.048981,0.022126,0.0099184,-0.1561,0.13077
-0.081331,-0.040742,-0.034333,0.0013733,0.005951,0.057527,0.13046,0.064546
-0.070954,0.0010681,-0.1265,-0.15305,-0.0010681,0.033417,0.13504,0.047456
-0.041962,-0.051728,-0.092012,-0.076753,-0.018463,0.049592,0.088045,0.02884
0.015412,-0.1561,-0.049897,-0.092622,-0.050507,0.060578,0.091707,0.018769
0.053254,-0.16678,0.019379,-0.076753,-0.0044251,0.023957,0.041352,-0.0062562
0.060578,-0.086519,0.070954,0.017853,0.051728,-0.0068666,0.016632,-0.044404
0.041657,0.22599,-0.041047,-0.051423,0.11063,-0.021515,0.0068666,-0.095064
0.026093,0.015106,-0.031586,-0.042267,0.070649,0.0019837,0.005951,-0.10391
0.027314,-0.057527,-0.088045,-0.079805,0.0050355,0.020905,-0.0022889,-0.085298
-0.0013733,-0.11337,-0.052338,-0.10452,0.018158,0.00015259,-0.042573,-0.10117
-0.0074769,-0.082856,-0.033722,-0.066377,0.016022,-0.0041199,-0.013581,-0.045014
-0.016327,-0.0086976,-0.16739,-0.026398,0.002594,-0.018769,-0.0035096,-0.00015259
-0.035859,0.012665,-0.13321,-0.12528,0.025788,-0.037385,-0.04715,0.017243
-0.057832,0.019379,-0.055085,-0.18296,-0.011444,-0.0041199,0.002594,0.08011
-0.10178,0.063935,-0.060883,-0.058747,-0.015106,0.0010681,0.017853,0.088045
-0.10422,0.023346,-0.11063,-0.066987,0.016022,0.033417,0.011139,0.086824
-0.095369,0.0099184,-0.082551,-0.15396,-0.0074769,0.030365,0.016938,0.099641
-0.081331,0.031586,-0.035859,-0.11246,-0.047456,0.016938,0.11612,0.063935
-0.043183,-0.056306,-0.016327,-0.046235,-0.069734,0.059358,0.21744,0.046845
-0.027619,-0.065461,-0.035554,-0.040436,-0.056611,0.045014,0.10544,0.0077821
0.010529,-0.092622,-0.012665,-0.079194,0.02121,0.020905,-0.088045,0.02182
0.012055,-0.084993,-0.01297,-0.11398,0.081331,-0.02182,-0.31662,0.020905
0.0068666,-0.21286,-0.010834,0.01297,0.005951,0.011444,-0.2089,-0.025788
-0.0019837,-0.13169,-0.025788,-0.057221,-0.009308,0.095369,0.19242,-0.043488
0.043183,-0.10941,-0.046845,-0.022736,0.067903,0.0050355,0.11002,-0.10422
-0.031281,0.026398,-0.12436,-0.051423,0.085298,-0.037385,-0.063935,-0.16373
-0.074922,0.16617,-0.079194,-0.099336,0.046845,-0.034943,-0.093843,-0.14328
0.011444,0.040742,-0.035554,-0.087739,-0.0071717,0.023041,0.16739,-0.04654
0.072175,0.009308,-0.14054,-0.10056,-0.0086976,0.034333,0.25956,0.011139
-0.018769,-0.069734,-0.10208,-0.16678,-0.01297,-0.031586,0.012665,0.053864
-0.057527,-0.18814,0.063935,-0.0383,-0.0044251,-0.10361,-0.36576,0.11643
-0.10941,-0.087434,-0.14328,-0.087129,0.020905,-0.06302,-0.28519,0.17624
-0.066987,0.010529,-0.18357,-0.08896,-0.028229,0.099031,0.25986,0.18479
-0.057832,0.11551,-0.05478,-0.08896,-0.040742,0.042267,0.28763,0.17136
-0.11795,0.068208,-0.011444,-0.082856,0.0019837,-0.010224,0.13504,0.099641
-0.12345,0.053864,0.033417,-0.042573,0.035554,0.02121,0.13657,0.072786
-0.026703,0.034028,-0.064851,-0.058137,0.053864,0.02121,0.14817,0.077974
-0.017243,-0.032197,-0.061189,-0.087129,0.025177,0.032502,0.061799,-0.031281
-0.012055,-0.041352,0.054475,-0.019684,-0.025483,0.031586,-0.38773,-0.096284
0.015106,-0.17136,0.022736,-0.075227,-0.016938,0.050202,-0.18723,-0.06363
0.077974,-0.3624,0.011444,-0.17899,0.027314,0.033112,0.10849,-0.073701
0.096895,-0.26993,-0.042267,0.34195,0.06424,-0.011749,0.065156,-0.083467
0.045014,-0.097505,-0.12772,-0.16739,0.074006,-0.023957,0.1796,-0.066072
0.0071717,0.073396,-0.11826,-0.16922,0.011139,0.010529,0.16312,-0.030976
-0.017548,-0.039521,-0.05417,-0.082551,-0.00076295,0.018769,0.16556,-0.017548
-0.034638,0.13138,-0.089265,-0.11856,0.0077821,-0.042878,-0.29984,-0.069123
-0.11917,0.18387,-0.14115,-0.11795,-0.019684,-0.041047,-0.84489,-0.074617
-0.1326,0.0080873,-0.095064,-0.086824,-0.066072,0.062409,0.11856,0.028229
-0.083467,-0.15091,-0.16403,-0.056916,-0.074922,0.059663,0.20951,0.10819
-0.0044251,-0.11368,-0.055085,-0.041352,-0.024262,0.00045777,0.096895,0.14115
-0.061799,0.17472,-0.063325,-0.19883,0.032197,-0.027619,0.081941,0.14664
-0.081025,0.16312,-0.026093,-0.27726,0.015412,0.0099184,0.034943,0.1561
-0.047456,0.076753,-0.015717,-0.028229,0.00045777,0.022736,0.085908,0.089265
0.040131,-0.070344,0.043793,0.079805,0.015106,0.027008,0.082246,-0.016938
0.068513,-0.26902,0.0083925,-0.024872,0.061799,0.0383,0.059968,-0.08072
0.035248,-0.20493,-0.0016785,-0.02945,0.048981,0.023957,0.051423,-0.091402
0.055695,-0.14389,-0.023041,0.043183,0.016632,0.026398,0.022126,-0.069734
0.018769,-0.13748,-0.010834,-0.12985,0.075227,-0.0010681,-0.026703,-0.076143
-0.0022889,-0.13565,-0.035554,-0.11673,0.084382,-0.019379,-0.062715,-0.082856
-0.024872,0.002594,-0.084993,-0.078279,0.034943,0.014496,-0.0044251,-0.017548
-0.11307,0.085298,-0.15457,-0.12894,0.018769,0.0028992,0.018769,-0.04593
-0.091402,0.043183,-0.14145,-0.11368,-0.036469,0.018463,-0.011444,-0.03769
-0.073701,0.10056,-0.10086,0.017243,-0.08072,0.052338,0.043793,0.031891
-0.10697,0.1265,-0.038911,-0.048981,-0.023651,0.0080873,-0.021515,0.0074769
-0.11002,0.090486,-0.092927,-0.15457,0.035859,-0.042878,-0.042878,0.0099184
-0.078889,0.03006,-0.073091,-0.02884,-0.015717,-0.0090028,0.022126,0.074006
-0.085908,-0.078584,-0.064851,-0.215,-0.020294,0.0041199,0.017853,0.11215
-0.025177,-0.10208,-0.061799,-0.0090028,-0.086213,0.065766,0.070344,0.1622
0.076753,-0.27085,0.0013733,0.011444,0.025177,0.012665,0.068208,0.10544
0.040436,-0.1149,-0.031891,-0.075227,0.11215,-0.049897,0.015106,0.040436
0.013886,-0.12009,-0.084993,-0.042878,0.038911,-0.009308,0.0053407,0.024872
0.0090028,-0.014496,-0.011444,-0.060883,-0.0047303,0.036469,0.023346,0.026093
0.07248,-0.15793,0.010529,-0.19211,-0.02884,0.063325,0.069734,0.0032044
0.048371,-0.050813,-0.075837,-0.10666,0.025483,0.015106,0.084077,-0.051423
-0.012055,0.00045777,-0.030365,-0.034638,0.048371,-0.00015259,-0.069429,-0.082246
-0.032807,0.051728,-0.059052,-0.068513,0.037385,-0.023041,-0.18601,-0.090181
-0.067903,0.048066,-0.059052,-0.056916,0.03769,-0.034333,-0.050507,-0.046845
-0.12192,0.092012,-0.098726,-0.099336,0.016022,-0.01297,-0.069123,-0.023346
-0.10391,0.07187,-0.08896,-0.10056,-0.0053407,0.02945,0.06302,0.030976
-0.037385,-0.064546,-0.1268,-0.077058,-0.021515,0.034638,0.084077,0.078279
-0.050813,-0.0083925,-0.11337,-0.15091,0.0056458,0.012665,0.033417,0.057832
-0.092317,-0.015717,-0.081331,-0.12528,-0.014496,0.0086976,0.033112,0.048066
-0.061494,-0.034638,-0.059968,-0.081331,-0.049592,0.011444,0.031586,0.075532
-0.020294,-0.08011,-0.014191,-0.066377,-0.043793,0.038605,0.042878,0.088045
-0.043488,0.00045777,-0.072175,-0.083162,-0.022736,0.026703,-0.0019837,0.029145
0.011749,-0.069429,-0.018463,0.015106,-0.011139,-0.0053407,0.088045,-0.016938
0.053559,-0.098116,-0.0083925,-0.0206,0.015412,0.025483,0.24094,-0.039521
0.11398,-0.18204,0.04593,-0.0050355,0.031586,0.041352,0.23697,-0.045319
0.067292,-0.14542,0.07187,-0.023346,0.078584,0.011444,0.24979,-0.077668
0.040436,-0.093843,-0.070039,-0.052644,0.1088,-0.034028,-0.18173,-0.13046
0.014801,0.025177,-0.094148,-0.091402,0.084077,-0.098116,-1.0808,-0.11734
-0.021515,-0.016022,-0.1149,-0.10452,0.048066,-0.022126,-0.22812,-0.024567
-0.075532,0.011444,-0.057832,-0.095674,0.0010681,0.038605,0.26627,0.012055
-0.10025,-0.041962,0.0096132,-0.093843,-0.0013733,-0.0056458,-0.019074,0.037079
-0.13626,0.057221,-0.15305,-0.066682,-0.0047303,0.010529,0.10605,0.11429
-0.14817,0.1207,-0.16403,-0.043183,-0.047761,0.059663,0.2266,0.17044
-0.13993,0.057832,-0.090181,-0.19181,-0.033722,0.029145,0.06424,0.15885
-0.094148,0.018158,-0.0019837,-0.14359,0.0050355,0.014191,0.078584,0.12772
-0.037385,0.010529,-0.090486,-0.13077,-0.021515,0.023041,0.14664,0.096895
-0.099947,-0.018158,-0.088655,-0.1207,-0.017548,0.016938,0.083772,0.075532
-0.010834,-0.073396,-0.075837,-0.087129,-0.016327,0.033417,0.066072,0.059052
0.023651,-0.1326,-0.032502,0.0065614,-0.015717,0.0032044,-0.04715,0.017243
-0.045319,-0.017548,-0.0044251,-0.070344,-0.015412,-0.032807,-0.13626,-0.096284
0.045014,-0.20768,0.038605,-0.058442,0.015412,0.044099,0.049897,-0.024872
0.068513,-0.14206,-0.04654,0.053864,0.009308,0.065766,0.039521,-0.032807
0.067597,-0.10422,-0.072786,-0.093233,0.049287,0.013886,0.0035096,-0.13535
0.016022,-0.071565,-0.028229,-0.078584,0.083162,-0.024872,0.005951,-0.15976
0.02182,-0.068208,-0.056306,-0.069734,0.036774,-0.029755,-0.0074769,-0.15946
0.020294,-0.15427,-0.10239,-0.099336,0.0080873,0.009308,0.099947,-0.088045
-0.043793,0.066682,-0.081331,-0.047761,0.015106,0.034943,0.20645,-0.063935
-0.015106,0.2034,-0.030976,0.016938,0.0035096,0.045014,0.10666,0.017853
-0.043183,0.1387,-0.11551,-0.085298,0.026703,-0.05417,-0.16312,0.020905
-0.033722,-0.12772,-0.038605,-0.016632,-0.0010681,-0.11154,-0.51194,0.021515
0.0016785,-0.2501,0.0086976,-0.10483,0.033722,-0.045624,-0.2388,0.0795
0.027008,-0.12284,-0.096895,-0.13169,0.077363,0.020294,0.30442,0.10056
-0.041047,0.072175,-0.15244,-0.12711,-0.04593,0.034638,0.20188,0.10147
-0.1091,0.24247,-0.092622,-0.094759,-0.068513,0.016938,-0.0096132,0.085908
-0.072786,0.043793,-0.064851,-0.098421,-0.041962,0.029145,-0.15549,0.097505
-0.065156,-0.027314,-0.035859,-0.097505,-0.013275,0.030365,-0.18997,0.098726
-0.028534,-0.058442,0.0096132,-0.050507,-0.025177,0.094453,0.14115,0.12039
-0.0047303,-0.11185,0.0044251,-0.026398,0.0032044,0.05478,0.2858,0.076448
-0.00045777,-0.16648,-0.005951,-0.051423,0.059663,0.00076295,0.26383,0.0206
0.0077821,-0.19974,-0.020905,-0.052338,0.066072,0.020294,0.25132,-0.012665
0.052033,-0.12558,-0.034333,-0.041657,0.037995,0.031586,0.16526,-0.066072
0.019684,0.015106,-0.010224,-0.037079,0.045014,0.0050355,-0.076753,-0.13993
-0.035248,0.076143,-0.094759,-0.0383,0.057221,-0.040131,-0.9337,-0.1973
-0.082856,0.064546,-0.096895,-0.11856,0.057527,-0.025177,-0.22721,-0.11917
-0.10513,0.076448,-0.11917,-0.15335,0.014801,0.027924,0.30442,-0.016938
-0.064851,-0.1622,-0.093538,-0.099947,-0.068818,0.070649,0.2208,0.050507
-0.074006,-0.098116,-0.087129,-0.074922,-0.075227,0.044404,0.2504,0.092622
-0.0383,0.040436,-0.13687,-0.070954,-0.046845,-0.0038148,-0.24155,0.07126
-0.02884,0.12863,-0.097505,-0.068208,-0.016632,-0.013886,-0.072786,0.075532
-0.07187,0.040131,-0.026703,-0.20676,-0.0019837,-0.015106,0.13931,0.02945
-0.08896,0.10758,-0.04593,-0.215,0.0206,-0.027619,0.025788,-0.0090028
-0.073396,0.022736,-0.077058,-0.032807,0.002594,0.0083925,0.037995,0.052338
-0.058137,-0.036774,-0.034943,-0.016632,0.015717,0.022126,-0.083467,0.069123
0.058137,-0.35569,0.044709,0.049287,-0.00015259,0.051423,0.045319,0.09659
0.053864,-0.32212,-0.011749,0.0056458,0.042267,0.037385,0.031586,0.072786
-0.010834,-0.12955,-0.064851,-0.072786,0.081331,0.013886,0.029145,-0.010834
0.009308,-0.10849,0.0206,-0.084993,0.022736,0.042267,0.13016,0.022736
-0.033417,0.026703,0.00015259,-0.066682,0.029755,0.025177,0.068208,-0.002594
-0.0032044,-0.039521,-0.052644,-0.049592,0.029755,0.041047,0.039521,-0.047456
0.030976,-0.009308,-0.10208,-0.070954,0.035554,0.027008,0.002594,-0.074922
0.039826,0.073396,-0.091402,-0.082246,0.034333,-0.041047,-0.047456,-0.093843
0.039216,0.13535,-0.095064,-0.056611,0.0068666,-0.078584,-0.092317,-0.062715
0.040436,-0.010529,-0.075837,-0.0795,0.0041199,-0.022126,-0.099641,0.0010681
-0.034333,-0.0080873,-0.11063,-0.14969,0.0068666,0.026093,0.03006,-0.0035096
-0.10178,0.042267,-0.11612,-0.18906,-0.06302,-0.0047303,0.032197,0.048981
-0.12375,-0.03769,-0.062104,-0.25986,-0.091402,0.0080873,0.0053407,0.086824
-0.13657,0.016327,-0.089265,0.26474,-0.025177,-0.018769,-0.0090028,0.067292
-0.12131,0.049897,-0.074311,-0.21469,0.0013733,-0.017243,-0.010224,0.03769
-0.056916,-0.043488,-0.026398,-0.27329,-0.057221,0.078279,0.060578,0.079194
0.066377,-0.12375,0.011749,0.31113,-0.039216,0.056916,0.04715,0.016938
0.070344,-0.1323,0.023346,-0.031281,0.080415,-0.02945,0.0077821,-0.064546
0.085908,-0.14359,-0.02182,-0.018158,0.13169,-0.048981,0.0086976,-0.053864
0.031281,-0.046235,-0.048676,0.036774,0.059663,-0.031281,-0.0972,-0.066987
0.041657,-0.051423,-0.0077821,-0.11521,0.035248,0.014496,-0.059358,-0.036774
-0.002594,-0.10422,-0.011749,-0.24033,0.035248,0.011444,0.0053407,-0.033112
-0.015106,-0.2327,-0.023957,-0.078279,0.039826,-0.031281,0.014191,-0.013581
-0.068208,-0.12161,-0.13474,-0.074311,-0.010224,0.043488,0.099947,0.02945
-0.086824,-0.02182,-0.099336,-0.076448,0.020905,0.045014,0.12528,0.055695
-0.1564,0.13077,-0.10727,-0.059052,0.023041,0.024872,0.12619,0.06424
-0.13931,0.14176,-0.121,-0.092927,-0.017548,0.016327,0.07248,0.078279
-0.072786,0.021515,-0.098421,-0.087739,-0.043793,-0.015412,-0.025177,0.10391
-0.040436,0.019379,-0.095064,-0.13931,-0.041657,-0.031586,-0.33402,0.044404
-0.08957,0.17807,-0.16373,-0.1384,-0.061799,0.043488,-0.0065614,0.061189
-0.081331,0.077363,-0.05417,-0.073396,-0.077363,0.038605,0.14237,0.089876
-0.061799,0.048676,0.04593,-0.048371,-0.030671,-0.0062562,0.01297,0.057221
-0.025177,-0.092927,-0.0090028,-0.082856,0.018158,0.018158,0.033722,-0.00015259
0.03769,-0.31083,0.11276,-0.027619,0.016632,0.033112,0.067292,-0.027008
0.072786,-0.22416,-0.043183,0.014801,0.017548,0.035248,0.051118,-0.074006
0.085908,-0.15091,-0.013886,-0.0090028,0.061494,0.019074,-0.0074769,-0.090181
0.10452,-0.13809,-0.10025,-0.013275,0.077974,-0.0041199,-0.032502,-0.11246
0.074006,-0.12802,-0.041047,-0.094453,0.10056,-0.060273,-0.11337,-0.13626
0.023346,-0.023957,0.041962,-0.078889,0.079194,-0.041047,-0.045014,-0.090791
-0.027619,-0.016938,-0.11643,-0.076753,0.03006,0.024567,0.032807,-0.00076295
-0.045319,0.073701,-0.10941,-0.11521,0.019074,0.0038148,-0.017243,0.049287
-0.084993,0.021515,-0.103,-0.13504,0.013581,-0.0074769,-0.015106,0.048981
-0.10178,0.043793,-0.14755,-0.12955,-0.045014,0.017243,0.0013733,0.056306
-0.074617,0.10605,-0.088045,0.0044251,-0.092317,0.035554,0.03769,0.094453
-0.042878,-0.0077821,-0.16709,-0.21622,-0.066072,0.0080873,0.068208,0.089265
-0.08957,0.073091,-0.078584,-0.19364,-0.049897,-0.025177,0.056001,0.042267
-0.15274,0.092622,0.016327,-0.099947,-0.002594,-0.019379,-0.081025,0.022736
-0.11948,-0.026093,0.0053407,-0.021515,0.068513,0.053254,0.058137,0.049897
-0.1091,0.011444,-0.090181,-0.065766,0.059358,0.042573,0.1326,0.041962
-0.00015259,-0.034028,-0.075837,-0.13748,-0.026398,0.022431,0.044099,0.031586
0.036774,-0.10056,0.014801,0.019989,-0.039521,0.035554,0.063325,0.024872
0.065156,-0.27207,0.030671,0.045014,0.04593,0.0038148,-0.00076295,-0.032807
0.08011,-0.23148,-0.041657,-0.053559,0.087434,-0.014191,-0.050507,-0.051118
0.077363,-0.068208,-0.036774,-0.049287,0.034943,-0.0010681,-0.037079,-0.052033
0.048371,-0.034028,-0.021515,-0.044709,0.035554,-0.0086976,-0.038911,-0.052033
0.037385,-0.067597,-0.065766,-0.06424,0.037995,0.014191,0.04654,-0.028229
-0.027314,0.0053407,-0.044099,-0.093843,0.018769,0.030976,0.04593,-0.060883
-0.052644,-0.0383,-0.069429,-0.0795,0.029755,0.0062562,-0.028534,-0.048371
-0.038605,0.051728,-0.17411,-0.11246,0.032807,-0.0090028,-0.028534,0.017548
-0.065461,0.060273,-0.11429,-0.1326,-0.013275,0.037385,-0.027314,0.023041
-0.081025,0.055695,-0.12833,-0.072175,-0.063935,0.040742,0.0071717,0.058137
-0.16892,0.065766,-0.094148,-0.081331,-0.026398,-0.033417,-0.013581,0.059968
-0.10849,-0.024262,-0.0019837,-0.066987,-0.01236,-0.035859,0.090181,0.11765
-0.14023,-0.018769,-0.044404,-0.12192,-0.011139,-0.033417,0.041352,0.1146
-0.071565,-0.023346,-0.10727,-0.12589,-0.028229,0.015106,0.01297,0.065461
0.016022,-0.053864,-0.088045,-0.10697,-0.077668,0.095064,0.35325,0.064546
0.019379,-0.067597,0.039521,0.0086976,-0.0090028,0.055695,0.36118,0.017243
0.018158,-0.027314,-0.02182,-0.0096132,0.042878,0.024872,0.34012,0.0065614
0.061494,-0.10452,-0.014801,-0.056611,0.035554,-0.027314,0.015717,0.0028992
0.068208,-0.084077,-0.047761,-0.061189,0.02945,-0.10422,-1.0698,-0.085908
0.059968,-0.13016,0.047456,-0.046845,0.056306,0.032807,-0.28336,-0.077363
-0.0053407,-0.12741,-0.045624,-0.073091,0.091402,0.030976,-0.38041,-0.074922
-0.075532,-0.071565,-0.035859,-0.073396,0.056001,0.03006,0.021515,-0.041047
-0.010834,-0.10544,-0.037995,-0.070649,0.0074769,0.058137,0.46647,0.018158
-0.0019837,0.002594,-0.10819,-0.077668,-0.0010681,0.01297,-0.009308,-0.035554
-0.075837,0.094759,-0.21775,-0.11093,0.0080873,-0.050507,-0.2034,-0.045014
-0.070954,0.12222,-0.13504,-0.10452,0.012055,-0.029755,-0.18906,-0.011139
-0.067597,0.12955,-0.11643,-0.16251,-0.011444,0.0090028,0.029755,0.02182
-0.039216,-0.059663,-0.03006,-0.11246,-0.045319,-0.02121,0.049287,0.0383
-0.057221,-0.15,-0.069123,-0.10544,-0.042573,-0.013886,0.099641,0.059968
-0.068208,0.023346,-0.022736,-0.10636,-0.038911,-0.00015259,0.17868,0.10605
-0.024872,-0.042573,-0.0077821,-0.0083925,-0.030365,0.015412,0.18173,0.1207
-0.0096132,0.02121,-0.097505,-0.032197,0.037079,-0.0019837,0.079805,0.08072
-0.016938,-0.016327,-0.033112,-0.093233,0.077974,0.014496,0.044099,0.031281
-0.0206,-0.032807,-0.027008,-0.08072,0.011139,0.051728,0.17227,0.019074
-0.009308,-0.050507,-0.016938,-0.02945,-0.016938,0.045014,0.10788,-0.018769
-0.01236,-0.17685,0.07248,-0.0083925,0.0068666,0.034943,0.010834,-0.020294
0.03006,-0.28214,-0.020294,-0.073701,0.018769,0.019074,-0.011139,-0.010834
0.10056,-0.27207,-0.034943,-0.020294,0.027619,-0.0056458,-0.050813,-0.059358
0.073396,-0.12253,-0.050813,-0.046845,0.043488,0.019989,-0.086824,-0.10758
-0.002594,-0.012665,-0.093538,-0.085298,0.067903,0.062104,0.049287,-0.095674
-0.048981,0.074617,-0.077058,-0.028534,0.029145,0.015412,0.01297,-0.052033
-0.08835,0.17533,-0.13687,-0.10575,0.0053407,-0.046235,-0.030365,-0.011444
-0.10819,0.056611,-0.074006,-0.087434,0.0013733,-0.035554,-0.030365,-0.0010681
-0.098421,0.0062562,-0.10269,-0.12863,-0.056916,0.014191,-0.0056458,0.086213
-0.11398,0.063325,-0.16281,-0.29129,-0.039216,0.010834,0.03006,0.091707
-0.14633,0.14328,-0.11551,-0.17899,-0.017243,0.0068666,0.013886,0.085298
-0.079194,0.049592,-0.090791,-0.059358,-0.017243,0.018463,0.026703,0.10025
-0.00015259,-0.05417,-0.0077821,0.00076295,-0.043793,0.048981,0.060578,0.12619
0.028229,-0.081636,0.070954,0.013581,-0.012055,0.019379,0.042878,0.049287
0.041657,-0.091707,-0.020905,-0.06302,0.055695,-0.024262,-0.0080873,-0.036469
0.0080873,-0.084993,-0.020905,-0.06363,0.0383,-0.00076295,-0.073396,-0.036469
0.019379,-0.17014,-0.018158,-0.06363,0.0035096,0.025483,-0.085298,-0.079805
0.057221,-0.23972,-0.01297,-0.034943,0.012055,0.051423,0.043183,-0.063325
0.10208,-0.1735,0.0206,0.0074769,0.0383,0.035248,0.029755,-0.045624
0.053864,0.0062562,-0.10025,0.010529,0.049897,0.005951,-0.0053407,-0.060578
-0.022126,-0.075532,-0.091096,-0.087739,0.077668,-0.034943,-0.026703,-0.077058
-0.070039,-0.027314,-0.078279,-0.097505,0.053559,-0.011444,0.051423,-0.0068666
-0.016632,-0.062104,-0.049897,-0.024872,-0.014801,0.015106,0.13169,0.078279
-0.091096,0.077363,-0.12161,-0.051728,-0.0032044,-0.016327,0.10361,0.066682
-0.098116,0.076448,-0.12772,-0.2977,-0.017548,-0.0053407,0.072786,0.07187
-0.15183,0.23606,-0.21134,-0.21683,-0.034638,-0.013886,-0.34928,0.080415
-0.12833,0.22232,-0.11276,-0.044709,-0.043183,-0.0099184,-0.13474,0.079194
-0.10391,0.12741,-0.068513,-0.13169,-0.059663,0.02121,0.24338,0.063325
-0.038911,-0.058747,0.031586,-0.17075,-0.00045777,-0.039521,-0.16312,-0.043183
-0.023651,-0.25498,0.15244,0.36179,0.019989,-0.021515,-0.22232,-0.073396
-0.037079,-0.13535,-0.052033,-0.19791,0.065766,0.005951,0.16312,-0.0010681
-0.018769,-0.15,-0.043793,-0.16861,-0.019074,0.046845,0.13718,0.032807
0.067597,-0.18173,-0.043183,-0.043183,-0.045624,0.081636,0.12863,0.050507
0.092012,-0.17838,-0.015412,-0.0050355,0.040131,0.038911,0.091402,0.015412
0.047761,-0.11215,-0.0090028,-0.056916,0.062104,0.0206,0.025788,-0.043488
0.02884,-0.13046,-0.028229,-0.038911,0.034333,-0.0035096,-0.0080873,-0.079194
-0.0065614,-0.034638,-0.10361,-0.060883,0.040131,-0.023957,-0.018769,-0.082246
-0.081331,-0.0074769,-0.064546,-0.093843,0.041047,-0.0013733,-0.019074,-0.074617
-0.070954,0.035554,-0.081025,-0.11032,0.015106,0.016632,-0.012665,-0.017548
-0.078889,0.12161,-0.1326,-0.12161,-0.02121,0.024262,0.0065614,0.031586
-0.054475,0.066682,-0.13077,-0.12985,-0.041962,0.016632,0.017853,0.06424
-0.020905,0.0077821,-0.076753,-0.18418,-0.031281,-0.017548,-0.0041199,0.085603
0.036774,0.042267,-0.070344,0.28183,0.024872,-0.044404,0.019989,0.074006
-0.10056,0.25559,-0.11521,-0.27359,0.054475,-0.043488,0.023041,0.068513
-0.11185,0.019074,-0.066682,-0.10513,-0.041962,0.01236,-0.058137,0.099641
-0.066072,-0.17746,-0.04654,-0.053559,-0.035554,0.039216,0.056611,0.099947
-0.054475,-0.033417,-0.047761,-0.082551,0.066377,-0.0047303,0.065766,0.041657
-0.0013733,-0.14694,0.013886,-0.064851,0.0035096,0.052338,0.03769,0.044099
0.013275,-0.087434,-0.031891,0.027314,-0.0071717,0.034333,0.02884,-0.027314
0.025788,-0.099641,0.0062562,-0.056306,0.015412,0.0053407,-0.030365,-0.087129
0.0099184,-0.030365,-0.12772,-0.12863,0.037079,0.013275,-0.057832,-0.08957
-0.0090028,0.023651,-0.022431,-0.1387,0.015412,0.024567,0.027619,-0.046845
-0.022431,-0.087434,0.057832,0.012055,0.013581,0.020294,0.094148,-0.00045777
0.067903,-0.31632,-0.0090028,0.0032044,0.036164,0.025483,0.050507,0.00076295
0.048981,-0.17441,-0.079194,-0.082551,0.061189,-0.0016785,-0.049287,-0.024262
0.0028992,-0.20157,-0.032502,-0.068208,0.066377,-0.027314,-0.025788,-0.053254
-0.013581,-0.084077,-0.121,-0.075532,0.041352,0.014801,0.030976,-0.0080873
-0.10025,0.20554,-0.19303,-0.18997,-0.0010681,-0.027924,-0.015717,0.0032044
-0.16251,0.17197,-0.096284,-0.1146,-0.039216,-0.049287,-0.035859,0.024262
-0.17319,0.15183,-0.11337,-0.14206,-0.0071717,0.020294,0.031586,0.083467
-0.081025,0.012665,-0.032197,-0.097505,-0.053559,0.062104,0.051728,0.067903
-0.03769,-0.032502,-0.033722,-0.079194,-0.076753,0.027924,0.03006,0.0038148
0.012665,-0.061799,-0.027619,-0.078584,-0.032197,0.022736,0.05539,0.02884
0.045014,-0.088655,0.010529,-0.043488,-0.0013733,0.0068666,0.052949,0.02884
0.044404,-0.081636,-0.052338,-0.069734,0.029145,-0.013581,0.11826,0.025483
0.016938,-0.052338,-0.041962,-0.087434,0.014191,0.0090028,0.18906,0.063325
-0.041047,-0.048371,-0.022736,-0.075837,0.027008,0.0047303,-0.04593,0.034943
-0.049287,-0.0206,-0.028534,-0.022736,0.03769,-0.047761,-0.87846,-0.002594
-0.084993,-0.037995,-0.034028,-0.083772,0.052949,-0.0053407,-0.12253,-0.0022889
-0.065461,-0.15335,-0.010224,-0.065766,0.036774,0.069123,0.34592,-0.010529
-0.0086976,-0.11551,-0.10727,-0.05539,-0.014496,0.092622,0.17044,0.019684
0.014191,-0.041657,-0.088655,-0.014191,0.022736,0.067292,0.15335,0.027619
-0.02121,0.09781,-0.10452,-0.057527,0.019074,0.034028,0.047456,0.00076295
-0.026398,0.1091,-0.087434,-0.093233,0.0053407,0.0032044,0.030976,-0.0041199
-0.057832,0.026093,-0.082246,-0.10636,0.0068666,-0.016022,-0.0062562,-0.019684
-0.0032044,-0.121,-0.13321,-0.074311,-0.024872,-0.02945,-0.033112,-0.023041
-0.033417,-0.13016,-0.10452,-0.076448,-0.023346,-0.015717,-0.020905,-0.0035096
-0.085603,0.12741,-0.081331,-0.11337,0.043793,-0.023346,-0.023346,0.009308
-0.048371,0.052644,-0.052644,-0.094759,-0.0080873,-0.019074,0.057221,0.029755
-0.018463,-0.025788,0.048981,-0.11185,-0.049592,-0.0080873,0.055695,0.022736
-0.06302,-0.034333,0.00076295,-0.11246,-0.022736,0.01297,-0.0050355,0.025177
0.040131,-0.078584,-0.041962,-0.043488,0.022736,0.04654,0.034028,0.011749
0.076448,-0.24949,0.017243,-0.11032,0.021515,0.0206,0.066072,0.011444
0.092622,-0.20462,-0.029145,-0.060578,0.022126,0.016022,0.04593,-0.038605
-0.019379,-0.028229,-0.036774,-0.024262,0.020905,0.062104,0.051118,-0.086824
0.0028992,-0.074922,-0.038911,0.037385,0.035248,0.032502,0.092012,-0.056001
-0.010224,-0.10452,-0.04715,-0.038605,0.04593,-0.022126,0.10758,-0.0047303
-0.039521,-0.075837,-0.048676,-0.10697,0.042878,-0.041352,0.0047303,-0.0090028
-0.026703,-0.021515,-0.16709,-0.09781,-0.0028992,-0.018769,0.12314,0.023346
-0.10575,0.088655,-0.077058,-0.092927,0.0013733,0.0019837,-0.34684,-0.012665
-0.13199,0.1796,-0.0096132,-0.057221,0.0028992,-0.036164,-0.82261,-0.0056458
-0.083467,0.081941,-0.17655,-0.051728,0.0096132,-0.0086976,0.16251,0.11246
-0.0206,0.022736,-0.15763,-0.082246,0.011139,-0.005951,0.25589,0.043488
-0.035554,-0.0035096,-0.06302,-0.10971,0.00076295,-0.0047303,0.16037,0.00076295
-0.048371,-0.040742,-0.050507,-0.10178,-0.010834,0.022126,0.11612,0.04593
-0.061189,0.076753,-0.029145,-0.17563,-0.023346,0.005951,-0.014801,0.044099
-0.025177,-0.044099,-0.025483,-0.23239,-0.057221,0.045624,0.023651,0.04593
-0.040742,-0.12467,0.0080873,-0.022431,-0.038605,0.052949,0.070344,0.053559
-0.053559,-0.16068,0.009308,0.06424,-0.00015259,0.059358,0.24735,0.065766
-0.019379,-0.16434,-0.041047,-0.061799,0.048371,0.041352,0.1796,0.089876
0.028229,-0.23789,0.00045777,0.0035096,0.06424,-0.013886,-0.019074,0.034028
0.051728,-0.06363,-0.078889,-0.0047303,0.082551,-0.070344,-0.32425,-0.070039
0.064546,-0.034333,-0.068818,-0.051728,0.093233,-0.024872,-0.22416,-0.10452
0.072175,-0.025788,-0.067903,-0.10086,0.039521,0.079194,0.37339,-0.081941
-0.023346,0.041657,-0.028534,-0.081331,0.02121,0.02945,0.21561,-0.061494
-0.05478,-0.0035096,-0.052338,-0.066987,0.0074769,-0.0068666,-0.029145,-0.041657
-0.069429,0.089265,-0.12955,-0.15152,0.0028992,-0.025483,-0.2034,0.034943
-0.15579,0.061189,-0.059052,-0.069734,-0.019684,-0.027008,-0.25193,0.037079
-0.168,0.042573,-0.12741,-0.061799,-0.042878,0.028534,0.1091,0.043793
-0.12009,0.061799,-0.1033,-0.24094,-0.083772,0.078584,0.21012,0.10544
-0.12955,0.12528,-0.1326,-0.14755,-0.07187,0.053559,0.084077,0.098116
-0.081636,0.03769,-0.11124,-0.023651,-0.02884,0.031586,0.055695,0.08011
-0.0056458,-0.12009,0.024872,-0.010224,-0.00015259,0.026398,0.0053407,0.043488
0.075837,-0.16648,0.019379,-0.02884,0.048371,-0.0077821,-0.019379,0.010834
0.094148,-0.22293,0.069734,-0.085298,0.022126,0.0068666,0.00045777,-0.0074769
0.089265,-0.27298,-0.041047,-0.077668,0.031281,0.019074,0.060578,-0.027008
0.072786,-0.13565,-0.052338,-0.016938,0.075532,-0.00076295,0.053254,-0.031586
0.025788,-0.016938,-0.040131,-0.048676,0.060578,0.0050355,0.074617,-0.0041199
-0.020905,0.0206,-0.094148,-0.08957,0.0383,-0.017548,0.00045777,-0.032807
-0.030976,-0.0044251,-0.092622,-0.10575,0.030365,-0.055695,-0.45396,-0.051423
-0.047761,0.0071717,0.038911,-0.037385,0.002594,0.0383,-0.12375,-0.024567
-0.10636,0.023651,-0.08011,-0.077363,-0.00015259,0.045624,0.16709,-0.065766
-0.017243,-0.15,0.10117,-0.059052,-0.0032044,0.020294,0.015412,-0.014801
0.00045777,-0.068208,-0.15579,-0.073396,-0.009308,0.014496,0.056306,0.041352
-0.036774,0.064546,-0.16983,-0.10239,0.043793,-0.059052,0.043793,-0.0022889
-0.10147,0.12375,-0.12863,-0.13474,0.0206,-0.060273,-0.014801,0.0038148
-0.098421,0.053864,-0.11368,-0.14969,-0.016327,-0.014801,-0.020905,0.040436
-0.031281,-0.0053407,-0.097505,-0.11887,-0.074617,0.04715,0.013886,0.067292
-0.016327,-0.00015259,0.005951,-0.07126,-0.074922,0.044404,0.037385,0.089876
0.0086976,-0.11429,-0.026703,-0.11673,-0.02884,0.019989,0.041962,0.098726
-0.027619,-0.042878,-0.070649,-0.18967,0.0038148,-0.0022889,0.087434,0.03006
-0.08896,-0.010224,-0.022736,0.23728,0.039216,-0.02182,0.10697,-0.030976
0.0056458,-0.12161,-0.014191,-0.11368,0.06302,-0.0099184,0.093843,-0.012055
0.066377,-0.21805,0.058747,0.2501,0.077974,0.018769,0.1149,-0.0056458
0.056611,-0.086213,-0.0068666,-0.23972,0.053559,-0.026093,-0.30961,-0.068208
0.039521,-0.11978,-0.023957,-0.10971,-0.0035096,0.018463,-0.1973,-0.11002
0.034943,-0.009308,-0.077058,-0.018463,0.13443,0.035554,0.14817,-0.095979
-0.028534,0.029755,-0.079194,-0.058137,0.10819,0.045319,-0.073091,-0.068208
-0.0795,-0.023346,-0.088655,-0.17655,-0.023041,0.034333,0.043183,0.016022
-0.11582,0.10544,-0.14084,-0.1735,-0.027619,0.032502,0.14847,0.053559
-0.11795,0.055695,-0.061799,-0.046235,-0.036774,0.057527,0.095979,0.080415
-0.10391,-0.022126,-0.083467,-0.046235,-0.028229,0.019379,0.07126,0.10452
-0.086824,-0.076143,-0.13077,-0.10513,-0.00076295,0.00015259,0.045624,0.079805
-0.041657,-0.032197,-0.1149,-0.10636,-0.028229,-0.0041199,0.019989,0.12192
-0.039826,0.091402,-0.066987,-0.11337,-0.035248,-0.033722,-0.034333,0.11917
-0.057832,0.0071717,-0.041962,-0.08896,-0.041962,0.01297,-0.016327,0.086519
-0.026398,-0.067597,-0.039826,-0.045319,-0.027314,0.038911,0.039521,0.066682
0.02182,-0.11643,0.016022,-0.034943,-0.010834,0.0206,-0.00076295,0.018769
0.030976,-0.085603,-0.010529,-0.055085,0.014191,0.00015259,-0.0065614,-0.03769
0.081331,-0.058137,-0.022126,-0.12589,0.039521,-0.018158,-0.014496,-0.061189
0.041962,-0.02182,-0.019684,-0.019684,0.037079,-0.017243,-0.032502,-0.0795
0.014191,-0.13779,-0.03006,-0.022431,0.082246,0.0019837,0.0010681,-0.086824
0.023346,-0.095979,-0.074617,-0.11948,0.084077,0.041657,0.025177,-0.050813
-0.021515,-0.04654,-0.033722,-0.082856,0.014801,0.034028,-0.0062562,-0.073091
-0.047761,0.025788,-0.070344,-0.047761,-0.010529,0.026703,0.0077821,-0.05478
-0.051118,0.11521,-0.11826,-0.069123,-0.011139,0.012055,0.041962,0.00076295
-0.042878,-0.0053407,-0.062409,-0.062409,-0.016938,0.002594,0.029755,0.031586
-0.051728,-0.12497,-0.13535,-0.095369,0.023041,-0.030976,0.016938,0.054475
-0.13016,0.1265,-0.12314,-0.15549,0.02945,-0.041657,0.026093,0.091402
-0.1265,0.12924,-0.08896,-0.11124,-0.0383,0.02945,0.048371,0.11093
-0.12833,0.099641,-0.058442,-0.12955,-0.048676,0.037079,0.075837,0.103
-0.091096,0.051728,-0.0086976,-0.090791,-0.018463,-0.01297,0.015412,0.068513
0.036774,-0.44907,0.047456,0.0053407,-0.016938,0.010529,0.07126,0.08011
0.0041199,-0.20768,-0.057221,-0.061189,0.011139,0.002594,0.13046,0.023651
0.070344,-0.23301,-0.093538,-0.0795,0.019074,0.015412,0.11978,0.012665
0.068208,-0.088655,-0.033722,-0.047761,-0.014801,0.060273,0.035248,-0.016938
0.011139,-0.019379,0.01236,-0.033722,0.039521,-0.042878,-0.78965,-0.12863
0.052033,-0.034028,-0.028229,-0.023651,0.07187,-0.019989,-0.17777,-0.057832
0.077668,-0.05417,0.017243,0.025177,0.065156,0.052949,0.23026,-0.045319
0.06363,-0.04593,-0.074617,-0.023041,0.065461,0.022431,-0.0010681,-0.10513
-0.044404,0.095674,-0.10544,-0.12741,0.081636,-0.013581,0.020294,-0.13382
-0.073091,-0.017548,0.022126,-0.10575,0.038911,0.00076295,0.026093,-0.091707
-0.075532,-0.13626,-0.076753,-0.094453,-0.027619,0.023346,0.04654,-0.0071717
-0.12589,0.013275,-0.1564,-0.12345,-0.029145,0.0047303,0.063325,0.033417
-0.11307,0.12039,-0.17929,-0.0972,-0.030976,-0.0035096,0.047456,0.074006
-0.11368,0.10544,-0.1207,-0.10941,-0.03769,-0.009308,0.013581,0.086824
-0.030365,0.065156,-0.066377,-0.16342,-0.025177,-0.0062562,0.082551,0.11185
-0.036774,0.04593,-0.044099,-0.10178,-0.017548,0.028229,0.091402,0.13443
-0.06363,-0.013886,-0.019074,-0.07126,-0.031281,0.035554,0.033417,0.14847
-0.016938,-0.081941,-0.039826,-0.061189,-0.021515,0.02945,0.041352,0.083467
0.0096132,-0.12955,-0.018158,-0.060883,-0.00045777,0.016632,0.010834,0.035248
-0.029755,-0.18173,-0.00076295,-0.033417,-0.0041199,0.034943,0.016022,0.0032044
-0.053864,-0.0056458,-0.04654,-0.040131,0.031281,0.018463,0.035554,-0.060578
0.059052,-0.14939,-0.034638,-0.014191,0.016022,0.039216,-0.0044251,-0.061799
0.023957,-0.08011,0.026703,0.032502,0.015412,0.023346,-0.0086976,-0.05478
-0.029145,0.042267,-0.039826,-0.044709,0.09781,-0.011139,0.0068666,-0.069123
0.019379,-0.00076295,-0.074617,-0.09659,0.11826,0.018463,0.03006,-0.0065614
-0.044404,0.017243,-0.040742,-0.23758,0.022736,0.01297,0.059968,-0.048981
0.0065614,0.015106,-0.16648,-0.2092,-0.03769,0.010224,0.14023,-0.060578
0.009308,-0.088655,-0.13962,-0.049592,0.010834,-0.023651,0.15457,-0.027008
-0.047761,-0.074922,-0.1088,-0.061799,0.0090028,-0.023041,0.19883,-0.042878
-0.061189,-0.081636,-0.035554,-0.075532,-0.0383,-0.0099184,-0.25925,0.054475
-0.095064,-0.065766,-0.026703,-0.0074769,0.0056458,-0.075227,-0.87877,0.088655
-0.082246,-0.018158,-0.063935,-0.083162,0.037995,0.0053407,0.12894,0.21927
-0.13077,0.14786,-0.063935,-0.1033,-0.0010681,0.052338,0.26413,0.18448
-0.073091,0.035248,-0.059052,-0.062409,-0.058747,0.041047,0.052338,0.121
-0.023041,-0.066377,-0.039826,-0.10117,-0.014191,0.034638,0.13535,0.043488
0.03006,-0.26383,0.053864,-0.074617,-0.0050355,0.050202,0.12284,-0.01236
0.014801,-0.17563,-0.039216,-0.033112,0.0019837,0.066377,0.26261,-0.025483
0.041962,-0.1442,-0.020905,0.013275,0.037079,0.027008,0.18784,-0.022736
0.07248,-0.031586,-0.052338,-0.014496,0.067597,-0.052033,-0.32456,-0.045319
0.052338,0.073701,-0.065156,-0.068208,0.082246,-0.070649,-0.374,-0.077974
-0.049287,0.15183,-0.070039,-0.064851,0.035248,-0.015412,-0.23423,-0.10361
-0.027314,0.11215,-0.074006,-0.089265,-0.011444,0.068818,0.08957,-0.071565
-0.038911,0.073396,-0.10483,-0.032502,-0.012665,0.050507,0.2031,-0.061799
-0.075227,-0.040131,-0.055085,-0.14878,-0.013275,0.026703,0.07187,-0.0383
0.0028992,-0.29191,0.0041199,-0.18601,-0.023041,0.02884,0.1091,0.025177
0.020294,-0.21683,-0.10513,-0.13352,0.045014,-0.057832,0.031586,0.033722
-0.14389,0.19821,-0.12772,-0.049592,0.036164,-0.052949,-0.016327,0.067903
-0.14603,0.19364,-0.12528,0.0010681,-0.018158,-0.013275,0.031891,0.084077
-0.078279,0.030365,-0.038605,-0.064546,-0.0041199,0.02121,0.06363,0.090791
-0.02121,-0.056916,-0.092927,-0.11307,0.0090028,0.015106,-0.060578,0.06302
-0.0068666,-0.069734,-0.092927,-0.12131,-0.0050355,0.0032044,-0.061189,0.025483
0.0053407,-0.16892,0.014801,-0.089265,-0.045624,0.045014,0.18723,-0.045014
-0.0019837,-0.12894,0.027314,-0.045014,-0.052644,0.045319,0.14603,-0.0062562
-0.036774,-0.087739,-0.019684,-0.012665,0.0016785,0.018769,-0.081941,0.022126
-0.031586,-0.09781,-0.030365,-0.038605,0.066377,-0.016938,-0.27085,0.040436
0.0090028,0.01236,-0.015717,-0.060883,0.087739,-0.017548,-0.099031,0.028229
0.04715,-0.12284,0.01236,-0.051728,0.040131,0.085908,0.32212,-0.012055
0.018769,-0.15763,-0.013581,-0.061799,0.029145,0.036469,0.12161,-0.057527
0.0053407,-0.074922,-0.06424,-0.051728,0.037385,-0.0096132,-0.04593,-0.048981
0.032807,-0.019684,-0.13352,-0.049592,0.027924,-0.016327,-0.028534,-0.023041
-0.044404,0.092012,-0.13382,-0.11917,0.02884,-0.028229,-0.041352,-0.04715
-0.073091,0.083772,-0.15457,-0.10086,-0.00015259,-0.013581,-0.011444,-0.02945
-0.072786,0.024567,-0.07187,-0.13474,-0.06302,-0.0074769,-0.02945,0.022126
-0.09781,0.085603,-0.1091,-0.17533,-0.052949,-0.014191,-0.044709,0.031891
-0.095369,0.085908,-0.085908,-0.15213,-0.022431,0.00045777,0.013886,0.060273
-0.103,0.050202,-0.015717,-0.21622,0.019074,0.045014,0.056611,0.075532
-0.081636,-0.048371,-0.036469,0.25437,-0.0041199,0.055085,0.08835,0.090791
-0.039216,-0.074617,-0.014801,-0.16281,0.019989,-0.005951,0.11826,0.10239
0.045014,-0.16892,-0.10239,-0.062715,-0.025483,0.045319,0.20737,0.092927
0.045624,0.018158,-0.066987,-0.095064,-0.019074,0.041047,0.1149,0.021515
-0.011444,0.051118,-0.012665,-0.048371,0.050507,-0.015717,0.061799,-0.012055
0.025177,-0.11612,-0.040436,0.011139,0.039826,-0.031891,-0.053254,-0.031891
0.03006,-0.18936,0.06363,0.044099,0.016632,-0.025788,-0.47074,-0.083772
0.096895,-0.43748,0.13107,0.022126,0.037995,0.059663,0.1384,-0.093233
0.095369,-0.29984,-0.052949,-0.12985,0.085603,0.035248,0.33616,-0.093233
0.040436,-0.08011,-0.10239,-0.13474,0.07187,-0.020294,-0.39261,-0.13138
-0.031281,0.035554,-0.11704,-0.13901,0.023651,-0.039521,-0.78386,-0.10391
-0.070039,0.13443,-0.14115,-0.092622,-0.012055,0.020294,0.1796,0.039521
-0.103,0.13931,-0.11978,-0.11734,-0.036774,0.031281,0.18021,0.043793
-0.13931,0.08957,-0.121,-0.103,-0.035859,0.024872,0.090791,0.041657
-0.13657,0.1323,-0.13138,-0.13993,-0.052033,0.034333,0.14206,0.14084
-0.11032,0.11429,-0.082246,-0.084382,-0.051728,0.034943,0.10056,0.16464
-0.072175,0.034333,0.026398,-0.013581,-0.024872,0.013275,0.064546,0.12802
-0.10513,0.081636,-0.043793,-0.077363,0.025483,-0.011749,-0.0068666,0.10575
-0.047456,-0.11276,-0.082246,-0.15488,0.020905,0.018769,0.061189,0.057832
0.018769,-0.19852,-0.045624,-0.20951,0.0096132,0.015412,0.092012,0.036164
0.019379,-0.03769,-0.01236,0.34653,0.042267,-0.011749,0.019989,-0.04654
0.0090028,-0.032197,-0.010529,-0.16068,0.036164,0.010224,0.0056458,-0.083467
0.061189,-0.18051,-0.0047303,-0.083467,0.0099184,0.05478,0.039216,-0.032807
0.041657,-0.19272,0.054475,-0.066682,0.059358,0.032502,-0.010834,-0.061494
0.053254,-0.10422,-0.044404,-0.050507,0.067903,0.0050355,-0.023651,-0.038605
0.040131,-0.057527,-0.14511,-0.042573,0.020905,0.020294,0.04593,-0.027314
-0.043183,-0.10239,-0.086213,-0.11734,0.049287,0.022431,0.076753,-0.028229
-0.085603,-0.030365,-0.062715,-0.08896,-0.0010681,0.020294,0.069429,0.038911
-0.066072,0.040131,-0.11276,-0.070344,-0.041047,0.0013733,-0.01297,0.052949
-0.068208,0.11032,-0.15702,-0.091402,-0.00076295,-0.043793,-0.016632,0.0019837
-0.08011,0.19852,-0.15976,-0.10361,-0.012055,-0.035554,-0.015106,-0.028534
-0.13657,0.2623,-0.08072,-0.11368,-0.012665,-0.016327,0.022126,-0.027619
-0.043793,0.022736,-0.0099184,-0.077058,-0.038605,-0.0074769,-0.059968,0.03769
-0.075837,-0.1146,0.073701,-0.060883,-0.018463,-0.0053407,-0.11765,0.015717
0.035554,-0.070649,-0.075837,-0.10117,0.025483,0.0019837,-0.025177,0.039216
0.13474,-0.12284,-0.041047,-0.060578,-0.0056458,0.019379,-0.022736,0.07187
0.063935,-0.15976,-0.022126,-0.049592,0.0038148,0.041352,0.045319,0.026093
-0.055085,0.044099,-0.034638,-0.074311,0.039521,0.018769,0.11612,0.033722
-0.025788,-0.15,-0.010834,-0.052644,0.023957,0.022126,0.16434,0.06424
-0.048371,-0.1207,-0.014496,-0.056306,0.051728,0.018158,0.046235,-0.01297
-0.024262,-0.28824,-0.030671,-0.033112,0.070649,-0.015106,0.042878,-0.039216
0.051118,-0.2916,0.0053407,-0.016938,0.022736,-0.0080873,-0.06363,-0.073701
-0.0068666,-0.025483,-0.066987,-0.103,0.037995,-0.016938,-0.3505,-0.12131
0.015412,0.08957,-0.14969,-0.11887,0.0077821,0.057221,0.082551,-0.0074769
-0.049287,0.10575,-0.15549,-0.11246,-0.0050355,0.037995,0.16861,-0.026398
-0.11002,0.02121,-0.078279,-0.084993,-0.0090028,0.019074,0.036774,-0.039216
-0.069123,-0.033417,-0.08835,-0.05417,-0.023651,0.010834,0.0032044,0.087739
-0.053559,0.073396,-0.024262,-0.09659,-0.0022889,-0.043793,-0.014801,0.10636
-0.084382,0.1387,-0.10544,-0.077058,0.009308,-0.045319,0.034333,0.069734
-0.086213,0.073396,-0.14908,-0.10544,-0.02121,-0.012665,-0.0068666,0.091707
-0.070954,-0.016938,-0.028534,-0.093233,-0.049592,0.047456,0.079194,0.14481
-0.077058,-0.0086976,-0.01236,-0.084688,-0.049592,0.06302,0.24796,0.088045
-0.035554,-0.046845,-0.0022889,-0.24277,-0.042878,0.082246,0.43259,0.082856
0.0383,-0.12619,-0.016022,-0.08896,-0.024262,0.060273,0.41703,0.060273
0.073396,-0.1268,-0.027619,0.072175,0.0016785,-0.040436,-0.52384,-0.056001
0.06363,-0.21469,-0.040742,-0.053254,0.11551,-0.095979,-1.1122,-0.10849
0.039216,-0.17807,0.010529,0.019989,0.16434,-0.028229,-0.12131,-0.04715
-0.016632,-0.053864,-0.035859,0.0086976,0.043488,0.077058,0.16892,-0.057832
-0.002594,-0.038605,-0.079194,-0.18692,-0.002594,0.039521,0.20188,-0.053254
-0.04654,0.024567,-0.083467,-0.11551,0.023651,-0.028229,0.023651,-0.087129
-0.034638,-0.00045777,-0.038911,-0.048676,0.012055,-0.0077821,0.016632,-0.08896
-0.046845,0.020294,-0.11307,-0.103,0.0099184,-0.0062562,0.027008,-0.070649
-0.059358,0.12039,-0.17655,-0.14328,0.005951,-0.0047303,0.059663,-0.0010681
-0.067903,0.085298,-0.11307,-0.13718,-0.044709,0.023346,0.066377,0.071565
-0.103,0.026093,-0.064546,-0.075227,-0.063935,0.02884,0.013275,0.082551
-0.089265,0.056611,-0.072175,-0.083162,-0.033722,-0.0074769,-0.014801,0.086519
-0.039826,0.092012,-0.0080873,-0.034943,-0.027008,-0.023346,-0.0047303,0.085298
0.04715,-0.24216,0.040131,-0.028229,-0.0383,0.017243,0.063325,0.015717
0.019074,-0.12985,-0.077058,-0.080415,0.037995,-0.018769,0.023041,-0.052033
0.020294,-0.01297,-0.073091,-0.066377,0.036774,-0.00015259,0.027314,-0.015717
0.026093,-0.10788,0.002594,0.005951,0.0041199,0.059358,0.083467,0.021515
0.022126,-0.16861,-0.015412,-0.0035096,0.019074,0.052644,0.058442,0.010529
0.0071717,-0.058442,-0.031891,-0.052949,0.059052,0.0068666,-0.0022889,-0.0068666
-0.015717,-0.088045,0.022736,-0.087739,0.063935,-0.02182,0.0068666,-0.037385
0.0041199,-0.10086,-0.021515,-0.12284,0.059052,-0.026093,0.042267,-0.019379
-0.060578,0.031281,-0.092927,-0.08896,0.05539,0.0013733,-0.0083925,-0.026703
-0.081941,0.032197,-0.10025,-0.044709,0.011444,0.048981,0.052033,0.025788
-0.052644,-0.11582,-0.12253,-0.059663,-0.017243,0.038605,0.091402,0.10544
-0.081025,0.05417,-0.1207,-0.14542,-0.017548,0.023041,0.059663,0.10239
-0.12009,0.023651,-0.10483,-0.090791,-0.015106,0.0099184,0.0080873,0.092927
-0.10513,0.022736,-0.08072,-0.12924,-0.011139,0.018769,-0.026703,0.10361
-0.10636,0.048371,-0.10147,-0.11734,-0.0047303,0.0041199,-0.076143,0.092012
-0.049287,-0.049897,0.034943,-0.071565,-0.038605,0.0041199,0.011139,0.076448
-0.036469,-0.041962,-0.056916,-0.10056,-0.021515,0.0044251,0.041657,0.067597
-0.045319,-0.0053407,-0.097505,-0.083772,-0.0383,0.021515,0.011444,0.038911
-0.028534,-0.033417,-0.070039,-0.087434,-0.058747,0.048981,0.055085,0.026093
-0.02121,-0.01236,-0.005951,-0.12161,-0.039521,0.034333,0.036164,-0.025483
-0.014191,-0.070954,0.0096132,0.047456,-0.011444,0.0050355,-0.0010681,-0.087434
0.062104,-0.07248,-0.034943,-0.038605,0.11887,-0.02182,-0.022736,-0.079805
0.081331,-0.14298,-0.056611,-0.11856,0.12589,0.0083925,-0.010224,-0.074617
0.063935,-0.17166,-0.01236,0.00045777,0.013581,0.030671,0.018158,-0.096284
0.057527,-0.19242,-0.051728,0.037385,0.0016785,0.019074,0.03769,-0.06363
-0.022126,-0.069429,-0.029755,-0.073701,0.092012,-0.02945,-0.014801,-0.074006
-0.039521,-0.022736,0.022126,-0.12558,0.057221,-0.035554,-0.0086976,-0.024872
-0.052949,0.10666,-0.032502,-0.15396,-0.0080873,-0.036469,0.063935,-0.011444
-0.068208,0.21134,-0.22416,-0.22416,-0.019379,-0.0022889,0.11063,0.0071717
-0.069123,0.18021,-0.17197,0.20859,-0.039826,0.04715,0.23209,0.068513
-0.02884,-0.026398,-0.10819,-0.18936,0.013275,-0.02121,0.038911,0.059052
0.036164,-0.19059,-0.040131,-0.06424,-0.024567,-0.047456,-0.82139,-0.002594
-0.047456,-0.02182,-0.081331,-0.099031,-0.009308,-0.044404,-0.38682,-0.034943
-0.081025,0.0035096,-0.070344,-0.067597,-0.0074769,0.0032044,0.25956,0.0071717
-0.054475,0.0035096,-0.051728,-0.16281,-0.058442,0.055085,0.11612,0.016632
-0.019379,-0.005951,-0.034028,-0.17075,-0.011444,0.0206,0.11093,0.029145
0.066072,-0.18631,0.10483,0.029755,-0.00015259,0.02945,0.043183,-0.0056458
0.050202,-0.19821,0.050813,0.019379,0.058442,0.013275,-0.023346,-0.066987
-0.024872,-0.045624,-0.050202,-0.043488,0.076753,-0.018158,-0.033112,-0.053864
-0.0206,-0.038605,-0.10849,-0.040131,0.014191,0.04715,0.056001,0.0056458
0.005951,-0.075837,-0.0383,-0.077668,0.05539,0.033417,0.068513,0.023346
0.0068666,-0.11795,-0.056611,-0.083467,0.079194,0.0032044,0.018158,0.02884
-0.0080873,-0.023346,-0.11246,-0.1146,0.031281,0.024567,0.033722,0.032807
-0.055085,-0.0028992,-0.06302,-0.10269,-0.0010681,0.015106,0.029755,0.025788
-0.082246,0.033112,-0.10147,-0.087129,-0.014191,-0.00076295,0.017243,0.022736
-0.054475,-0.00015259,-0.12924,-0.078889,-0.027314,0.0050355,0.011444,0.041047
-0.041047,-0.024262,-0.076753,-0.096284,-0.015717,-0.0047303,-0.0044251,0.07187
-0.093843,0.036469,-0.083467,-0.10849,-0.0022889,-0.0383,-0.014801,0.044404
-0.1146,0.10452,-0.12772,-0.13107,-0.014191,-0.013275,0.027314,0.056306
-0.10544,0.10788,-0.082246,-0.15488,-0.047761,0.035554,0.067292,0.082551
-0.081025,0.0022889,-0.039826,-0.23819,-0.055695,0.02121,-0.057221,0.076753
-0.04593,-0.10239,-0.0044251,0.20798,-0.044709,0.053559,-0.0053407,0.086519
0.011139,-0.23636,0.059663,-0.066377,-0.0044251,0.030365,0.12284,0.030365
0.014191,-0.064546,-0.036774,-0.10575,0.0038148,0.056306,0.2031,0.013581
-0.0028992,-0.052033,-0.020905,-0.0074769,0.025177,0.064851,0.22202,-0.0047303
0.0099184,-0.17044,-0.013886,-0.036774,0.065766,0.0090028,0.1445,-0.041047
0.041657,-0.21225,-0.014801,-0.018158,0.051728,0.017853,-0.22873,-0.053559
0.034028,-0.073396,-0.068818,-0.035554,0.073701,0.0086976,-0.20127,-0.067903
-0.021515,0.16831,-0.090181,-0.090486,0.08072,-0.040131,0.070039,-0.078889
-0.014191,0.023651,-0.08011,-0.11307,0.029145,-0.030976,-0.064851,-0.087434
-0.037385,-0.05539,-0.060578,-0.10483,-0.0032044,0.022431,-0.009308,-0.052949
-0.0096132,-0.032502,-0.0795,-0.056306,-0.02884,0.0206,0.10788,-0.0047303
-0.034333,0.14115,-0.14328,-0.10117,-0.012665,-0.0041199,0.20706,0.02182
-0.045014,-0.0080873,-0.04654,-0.11154,-0.0065614,-0.022126,0.086213,0.049592
-0.049897,-0.013581,-0.07248,-0.093233,-0.014801,-0.033722,-0.10849,0.10697
-0.10025,0.10544,-0.15976,-0.14054,0.00076295,-0.10239,-0.39384,0.10697
-0.065156,0.053864,-0.068208,0.0053407,-0.034333,-0.043488,-0.4918,0.056001
-0.091096,0.015412,-0.033112,-0.12253,-0.032197,0.05417,0.11887,0.073701
-0.016327,-0.06363,-0.1088,-0.10666,0.034028,0.023957,0.15213,0.046845
0.08011,-0.30625,0.072786,-0.062715,-0.01236,0.062409,0.15122,0.0090028
0.051728,-0.40024,0.058442,-0.0383,0.025483,0.0028992,0.10086,-0.081636
-0.030976,-0.099641,-0.057221,-0.036164,0.07248,-0.0062562,0.0065614,-0.091707
-0.052644,-0.014496,-0.052644,-0.095369,0.029755,0.045319,0.069734,-0.019074
-0.039216,0.022126,-0.0086976,-0.036774,0.0050355,0.040131,0.080415,0.017548
0.0096132,-0.0053407,-0.055695,-0.020905,-0.0028992,0.037079,0.050507,0.023651
-0.019684,-0.0028992,-0.063935,-0.069734,0.036164,0.042878,0.033722,-0.014801
0.005951,-0.103,-0.060883,-0.038911,0.021515,0.033417,-0.0022889,-0.072786
0.042267,-0.1622,-0.10697,-0.10575,0.017548,-0.01297,-0.036774,-0.075837
0.022736,0.12955,-0.13993,-0.15702,0.025788,-0.017243,-0.044709,-0.033112
-0.043488,0.11643,-0.10086,-0.08957,-0.018463,-0.011139,-0.0074769,-0.0062562
-0.12741,0.094759,-0.079194,-0.08835,-0.034638,-0.0096132,0.056001,0.066072
-0.1503,0.063325,-0.10025,-0.13565,-0.033722,-0.022126,0.048066,0.10269
-0.14969,0.050202,-0.054475,-0.08957,-0.061799,0.014801,0.024872,0.14389
-0.096284,0.041962,-0.076143,-0.096895,-0.04593,0.015412,0.0013733,0.13199
0.014801,0.039216,-0.051728,-0.0206,0.011749,-0.013886,-0.10788,0.059358
0.011444,0.16953,-0.032197,-0.02945,0.045014,0.011139,0.067903,-0.024872
0.11643,-0.24857,0.01236,-0.0065614,0.0086976,0.033112,0.22812,0.002594
0.10788,-0.43809,-0.013886,-0.082246,0.0038148,0.031281,0.20096,0.014801
0.11246,-0.17563,-0.022736,-0.27024,0.074617,0.014496,0.23331,-0.015412
0.027619,-0.014801,-0.027619,-0.092317,0.067597,-0.0013733,-0.40879,-0.070954
-0.04715,-0.12192,0.024872,0.12894,0.06302,-0.043183,-0.81132,-0.12467
-0.093233,0.0013733,-0.022126,0.14572,0.047761,0.018463,0.16739,-0.059968
-0.059663,-0.086213,-0.039826,-0.058747,-0.011444,0.028534,0.11002,-0.064851
-0.0019837,-0.030976,-0.16464,-0.24582,0.017853,0.0047303,0.015106,-0.065156
-0.12741,-0.01297,-0.092317,-0.12985,0.10269,-0.013275,0.02182,-0.077363
-0.14084,0.11856,-0.12863,-0.14206,0.014191,0.00015259,0.074311,0.010834
-0.060578,-0.01236,-0.11826,-0.092927,-0.066072,-0.020905,0.13687,0.056001
-0.049897,0.030365,-0.094759,-0.072786,-0.06363,0.033112,0.12314,0.084688
-0.10727,0.098116,-0.083162,-0.11307,-0.050813,0.016938,0.052949,0.13291
-0.072786,0.019989,-0.05478,-0.13107,-0.032197,0.016327,0.037079,0.14481
0.018158,-0.045624,-0.039826,-0.098421,-0.026398,0.034638,0.033112,0.13504
0.034333,-0.059968,-0.051118,-0.053254,-0.016632,0.018463,-0.0053407,0.043793
0.029145,-0.079805,-0.0383,-0.023651,0.0019837,-0.0090028,-0.014191,0.0028992
0.025177,-0.061494,-0.0053407,-0.0050355,0.018769,-0.019379,-0.00076295,-0.0083925
0.044099,-0.18387,0.0065614,-0.061799,0.037385,-0.0050355,-0.0096132,-0.048676
0.066377,-0.18296,-0.0090028,-0.19272,-0.0013733,0.026093,0.049592,-0.014801
-0.031586,-0.071565,-0.035859,-0.056916,-0.0022889,0.030671,0.040436,-0.053254
-0.10513,0.009308,-0.1149,0.019379,0.065461,0.035248,0.017243,-0.041047
-0.066072,0.0056458,-0.046235,-0.02945,0.10605,0.060883,0.056001,0.025177
-0.02121,0.053254,-0.059358,-0.12131,0.074311,0.023346,0.030976,-0.018158
-0.0050355,-0.060883,0.0065614,-0.061494,0.0077821,-0.011749,-0.023651,-0.052644
-0.050507,-0.12619,-0.074617,-0.040742,-0.027619,-0.028229,-0.051728,-0.038605
-0.066987,-0.055695,-0.18479,-0.17868,-0.022736,-0.027314,-0.024567,-0.0068666
-0.022126,0.13199,-0.12711,-0.1326,-0.048371,-0.019379,-0.016938,0.041657
-0.036469,0.18784,-0.070649,-0.085908,-0.012665,-0.037079,-0.033112,0.049592
-0.11063,0.08835,-0.10422,-0.12955,0.018769,-0.011444,-0.0074769,0.075837
-0.098116,-0.017548,-0.045624,-0.082856,-0.055695,0.052338,0.0050355,0.06424
-0.073701,-0.067597,-0.022736,-0.045014,-0.042573,0.054475,0.11063,0.038911
-0.045319,-0.11978,-0.037995,-0.035248,0.016022,0.0086976,0.062104,0.03769
-0.0062562,-0.14267,0.040742,-0.017548,0.032807,0.033112,0.10025,0.079805
0.050507,-0.099641,-0.010224,-0.038605,0.033417,0.042267,0.22782,0.056306
0.039216,-0.045624,-0.056306,-0.04654,0.027314,0.035248,0.20371,0.013886
0.0383,-0.12833,-0.01297,-0.010834,0.023041,0.01297,0.059663,-0.039826
0.061494,-0.15396,-0.0068666,-0.047456,0.040436,-0.056306,-0.25437,-0.08011
0.0041199,-0.036774,-0.082551,-0.13565,0.047761,-0.041352,-0.24949,-0.12131
-0.039521,0.047761,-0.08835,-0.12589,0.062104,-0.014191,-0.49912,-0.11704
-0.043183,0.026093,-0.094453,-0.077058,0.026703,0.011444,-0.21927,-0.017243
-0.047761,0.035554,-0.099641,-0.083162,-0.027619,0.014801,0.24308,0.033112
-0.091707,0.0032044,-0.0074769,-0.055085,-0.029145,0.016632,0.064546,0.017548
-0.095064,-0.12558,-0.044404,-0.03769,-0.017243,0.0086976,0.10636,0.053559
-0.091402,-0.067903,-0.13718,-0.10239,0.0065614,0.0053407,0.049592,0.080415
-0.091707,0.074617,-0.056916,-0.14267,-0.027314,0.03006,0.076753,0.078584
-0.051423,0.037079,-0.15183,-0.1268,-0.051118,0.02945,0.10544,0.084382
-0.032502,0.091402,-0.1149,-0.11246,-0.033112,-0.0047303,0.091402,0.077363
-0.027314,-0.0022889,-0.095979,-0.10483,-0.026703,0.0041199,0.030976,0.033417
0.0032044,-0.10086,0.0206,-0.044099,-0.019379,0.010529,-0.03769,-0.049592
0.017853,-0.14694,-0.021515,-0.044099,0.019379,0.014191,-0.095979,-0.086824
0.050507,-0.20645,0.076143,-0.00015259,0.059968,-0.0028992,0.052949,-0.084077
0.02182,-0.12589,0.023651,-0.011139,0.077974,0.00015259,0.11307,-0.050813
-0.019379,-0.060883,-0.10239,-0.22873,0.07187,0.023346,0.093843,-0.016632
0.041352,-0.1149,-0.031891,0.12741,0.02884,0.010529,-0.1207,0.012055
0.040131,0.00015259,-0.02182,-0.034333,0.022126,0.022431,-0.14694,-0.018158
0.0010681,-0.009308,-0.055695,-0.121,0.076753,0.0047303,0.11643,0.013886
-0.075837,-0.011749,-0.103,-0.072175,0.023651,0.019989,0.028229,0.022126
-0.099641,0.051728,-0.1677,-0.12772,0.025788,0.026093,0.033112,0.017243
-0.11582,0.1445,-0.15061,-0.16617,-0.014496,0.0086976,0.035859,0.033112
-0.10422,0.095979,-0.11978,-0.18112,-0.071565,0.023041,0.049287,0.087434
-0.074617,-0.038605,-0.042267,-0.11795,-0.083162,0.044099,0.08835,0.13901
0.017853,-0.086519,-0.02182,-0.014801,-0.058747,0.024567,0.049287,0.11002
-0.002594,-0.069429,0.022126,0.03006,0.0056458,-0.0062562,-0.00015259,0.035248
-0.13443,0.11795,-0.073091,-0.11154,0.063325,-0.024872,0.022126,0.019074
-0.087129,0.064546,-0.048371,-0.015412,0.060273,-0.024262,0.02182,0.062409
-0.00015259,0.009308,-0.03769,-0.027314,0.002594,0.053559,0.12863,0.040436
0.0019837,-0.14817,-0.018769,-0.073701,0.032807,0.015412,0.11704,-0.035859
0.096895,-0.25803,-0.034028,-0.095674,0.016938,-0.013581,-0.33005,-0.038605
0.11307,-0.29252,-0.010834,-0.067597,0.020905,-0.010834,-0.26871,-0.085603
0.10819,-0.24094,-0.043183,-0.055695,0.02884,0.0071717,0.091707,-0.12863
0.036164,-0.12619,-0.043793,-0.061189,0.030976,0.018463,0.0038148,-0.10636
-0.01236,-0.036469,-0.075837,-0.087434,0.014801,0.025177,0.048066,-0.060578
-0.026398,0.05539,-0.08957,-0.081636,0.01297,0.019379,0.067597,-0.02945
-0.041962,0.034333,-0.061189,-0.10971,0.015106,-0.005951,-0.01297,-0.046845
-0.10056,0.14939,-0.097505,-0.26169,0.002594,-0.031281,-0.083467,-0.030671
-0.1207,0.14176,-0.085298,0.17441,-0.00045777,-0.035248,-0.14633,-0.010224
-0.12345,0.07126,-0.078279,-0.10391,-0.010224,-0.0090028,0.041352,0.043793
-0.083162,0.0065614,-0.1265,-0.23239,-0.033722,0.028229,0.15457,0.10269
-0.096895,0.041962,-0.11093,-0.11154,-0.02945,0.034943,0.22934,0.11246
-0.087129,0.07187,-0.13565,-0.10117,-0.037385,0.011139,0.16342,0.11551
-0.083162,-0.031891,-0.056916,-0.10941,-0.04715,0.039521,0.022736,0.10605
-0.041657,-0.087434,-0.0062562,-0.07126,-0.034943,0.048371,-0.049287,0.076448
0.039521,-0.15335,0.011444,-0.026398,-0.024872,0.038605,-0.047456,0.08072
0.075837,-0.28214,0.1503,0.060273,0.039826,0.034028,0.03006,0.037079
0.12833,-0.20554,-0.057832,-0.039216,0.11368,-0.0071717,0.02945,-0.015412
0.085908,-0.013886,-0.17533,-0.08072,0.085603,-0.034943,-0.035859,-0.067597
0.0010681,0.080415,-0.065766,-0.10452,0.049897,0.0022889,-0.064546,-0.10513
-0.068818,0.095979,-0.05417,-0.049287,0.027008,0.012665,-0.031891,-0.089876
-0.077668,0.10117,-0.037079,-0.039521,-0.00015259,0.034638,0.055695,-0.03769
0.031281,-0.24674,0.039826,0.02182,-0.002594,0.027924,0.18753,-0.020905
-0.011444,-0.24155,0.082856,0.070954,0.07126,-0.032807,0.24369,-0.033417
-0.13565,0.058137,-0.121,-0.11734,0.092012,-0.051728,0.37217,-0.010224
-0.11856,-0.076448,-0.028229,-0.1326,-0.0096132,-0.0035096,0.16953,0.077974
-0.092012,0.033722,-0.17655,-0.18601,-0.064546,-0.02121,-0.89067,0.10697
-0.065156,0.043793,-0.13107,-0.16495,-0.049592,-0.031281,-0.57755,0.11398
-0.083772,0.06424,-0.10941,-0.20279,-0.050813,0.0041199,-0.031586,0.097505
-0.069734,-0.056001,-0.11765,-0.20157,-0.062715,0.034333,0.099947,0.0795
-0.030671,-0.094148,-0.065766,0.08072,-0.022431,-0.0038148,0.1326,0.052033
-0.002594,0.11856,-0.11551,-0.034333,0.02182,0.029145,0.090791,-0.028229
-0.024262,0.11215,-0.002594,-0.19425,0.01297,0.044709,0.1561,-0.057527
-0.014496,-0.010224,0.013886,-0.023346,0.031281,0.012055,0.13046,-0.074006
0.052033,-0.22782,0.076448,-0.014191,0.00045777,0.058442,0.1622,-0.012055
0.12619,-0.31052,0.028229,-0.055695,0.066072,-0.010224,0.052338,-0.0062562
0.093538,-0.12253,-0.083467,-0.10239,0.078584,-0.017853,0.002594,-0.04593
0.02182,-0.026093,-0.11246,-0.031586,0.035248,0.030671,0.058137,-0.010529
-0.040742,0.017243,-0.064851,-0.046235,0.0065614,0.014496,-0.010529,-0.011444
-0.075837,0.060578,-0.099641,-0.027314,-0.018463,-0.02121,-0.16495,-0.040436
-0.085908,-0.00015259,-0.091096,-0.13291,0.059663,-0.0068666,-0.019074,-0.033417
-0.062104,-0.034028,-0.011444,-0.12955,0.061494,0.035554,0.052338,0.029145
-0.070039,-0.092317,-0.11032,-0.089265,-0.074617,-0.0016785,0.014801,0.0206
-0.050507,0.039216,-0.12436,-0.093233,-0.087129,0.0080873,0.04654,0.049287
-0.17929,0.090486,-0.038911,-0.047456,-0.05539,0.036469,0.051423,0.09659
-0.093843,-0.025788,-0.018463,-0.082551,0.03769,0.019074,0.095369,0.1442
-0.03769,-0.013886,-0.074922,-0.0795,0.067903,0.037995,0.25101,0.15091
0.064546,-0.016022,-0.11154,-0.087129,0.039826,0.014496,0.22538,0.041962
0.091707,-0.10269,-0.058442,-0.0795,0.0047303,0.009308,0.1735,-0.036469
0.011139,-0.066377,0.011444,-0.046845,0.0010681,-0.0016785,-0.17411,-0.12375
0.00076295,-0.086213,0.0071717,-0.042573,0.031281,-0.04715,-0.90227,-0.12589
0.0065614,0.037385,0.042267,-0.022431,0.039216,0.012665,-0.11063,-0.053254
-0.044404,0.1091,-0.024872,-0.02945,0.02945,0.048371,0.11521,-0.074922
-0.069429,-0.08896,-0.056916,-0.093538,0.029755,0.031586,0.043488,-0.059358
-0.037385,-0.21256,-0.010224,-0.063325,0.0041199,0.044099,0.13687,0.019074
0.053254,-0.31876,-0.088655,-0.025483,0.010529,0.020905,0.091707,0.025177
0.049897,-0.15457,-0.1387,-0.063325,0.079805,-0.03006,0.031281,-0.0022889
-0.012055,0.031281,-0.084077,-0.10666,0.062409,-0.040131,-0.023651,-0.032807
-0.049287,0.11643,-0.13138,-0.11307,-0.010529,0.0050355,-0.01236,0.0016785
-0.11124,0.20371,-0.1091,-0.13596,-0.027314,0.010529,0.0086976,0.058442
-0.12253,0.15549,-0.10147,-0.1088,-0.034638,0.0019837,0.0080873,0.094453
-0.053254,0.043183,-0.11429,-0.10941,-0.04593,-0.011444,0.055695,0.13016
-0.055695,0.032502,-0.036164,-0.10117,-0.020294,-0.028229,0.039216,0.10544
-0.025177,-0.11154,-0.02182,-0.055085,-0.043183,0.032807,0.031281,0.058137
0.027008,-0.1384,-0.024262,-0.058747,-0.016327,0.065156,0.068513,0.03006
0.048981,-0.097505,0.016022,-0.031586,0.013886,0.015412,0.057527,-0.04654
0.0074769,-0.15702,-0.00045777,-0.052644,0.012665,0.0041199,0.020905,-0.066072
-0.0056458,-0.15183,-0.0035096,-0.064851,0.051118,-0.019074,-0.015106,-0.031281
0.011444,-0.078279,-0.037995,-0.040131,0.024872,0.0206,0.17533,0.0099184
-0.040742,-0.035859,-0.081025,-0.038605,0.013886,0.069123,0.20737,0.03769
-0.048676,-0.02884,-0.033722,-0.13138,-0.002594,0.068208,0.049897,0.024872
-0.039521,-0.094148,-0.08957,-0.093843,0.018769,-0.010224,-0.15885,-0.023041
-0.049592,-0.05417,-0.00076295,-0.048981,0.045319,-0.026398,-0.35172,-0.091096
-0.10788,0.045319,-0.10941,-0.10178,0.011749,0.084993,0.10788,-0.045014
-0.11643,0.079194,-0.090181,-0.11032,-0.023651,0.036164,0.24949,0.047761
-0.026398,0.02182,-0.068818,-0.051423,-0.0071717,-0.080415,0.037995,0.058442
-0.024567,0.02182,-0.16068,-0.04654,0.031586,-0.10056,-0.13931,0.07248
-0.075837,0.052033,-0.10452,-0.12711,0.066682,-0.053254,-0.23758,0.1323
-0.08835,0.095369,-0.069429,-0.13107,0.025177,0.05417,0.11276,0.1915
-0.051118,0.049287,-0.078889,-0.09781,-0.057527,0.070344,0.092927,0.103
0.002594,-0.013886,-0.041962,-0.040742,-0.045319,0.059663,0.0096132,0.035248
0.041962,-0.092622,0.0083925,-0.038911,-0.028229,0.042267,0.034333,0.0010681
0.059663,-0.19242,0.12131,-0.018463,0.015717,0.020905,0.037995,-0.051728
0.019074,-0.20188,0.023651,-0.066377,0.052338,0.00045777,0.0099184,-0.086824
0.017243,-0.15335,-0.031891,-0.042573,0.036774,-0.0028992,0.025483,-0.049592
-0.023346,-0.121,-0.017853,-0.048371,0.051728,-0.020905,0.018158,-0.085908
0.036774,-0.21683,-0.17807,-0.074922,0.046235,0.012055,-0.002594,-0.078279
0.043488,-0.13046,-0.10819,-0.05478,0.01297,0.012665,-0.08896,-0.064851
0.026093,0.040131,-0.062715,-0.077668,0.016022,0.016327,-0.052644,-0.10178
-0.050813,0.12863,-0.057832,-0.017548,0.027924,0.021515,0.022736,-0.063935
-0.077668,0.076448,-0.11948,-0.15702,-0.0035096,0.024262,-0.0065614,0.0028992
-0.10056,0.070649,-0.10697,-0.17716,-0.014801,-0.0041199,0.029755,0.052033
-0.12863,0.034028,-0.046235,-0.08835,-0.014496,-0.027619,0.04654,0.033722
-0.069734,0.025788,-0.103,-0.10056,-0.018158,-0.027924,0.016938,0.077974
-0.052644,0.068208,-0.12345,-0.12741,-0.0041199,-0.02121,0.023957,0.09781
-0.041962,0.0074769,-0.065156,-0.18967,-0.033722,0.032197,0.066682,0.10147
0.0050355,-0.11185,0.035554,-0.06363,-0.044709,0.036469,0.017853,0.087434
-0.036774,-0.12558,-0.031891,0.11185,-0.0041199,0.011444,-0.017548,0.041962
-0.0041199,-0.084993,-0.054475,-0.20371,0.059358,-0.039216,-0.023041,0.029145
0.0035096,-0.15763,-0.0096132,-0.059663,-0.037385,0.032502,0.033112,0.051118
0.0041199,-0.13413,0.013275,0.027008,-0.011444,0.04715,0.0056458,-0.027314
0.017548,-0.050507,-0.0016785,0.084077,0.074617,0.0028992,-0.018769,-0.049897
-0.051118,-0.0028992,-0.040742,-0.013275,0.1265,-0.012665,-0.0065614,-0.059052
-0.067597,0.034333,-0.073396,-0.11276,0.12039,-0.02121,0.051728,-0.041047
0.032197,0.022126,-0.092927,-0.13199,0.0080873,0.033112,0.12039,0.0035096
0.089876,-0.061799,-0.08835,-0.10941,-0.021515,0.038605,0.022736,0.026703
0.0383,0.018463,-0.11307,-0.0795,-0.016632,0.020294,-0.033417,0.02121
-0.010529,-0.08896,-0.14633,-0.083467,0.0068666,-0.0099184,-0.12161,-0.034638
-0.075532,-0.0016785,-0.048371,-0.10575,0.017853,-0.027314,-0.10788,-0.019684
-0.10941,-0.021515,0.0047303,-0.081636,-0.010834,0.0013733,0.031586,0.040131
-0.13687,0.067597,-0.10147,-0.10483,-0.032197,-0.0013733,0.086824,0.079805
-0.11032,0.08072,-0.11124,-0.16281,-0.018463,-0.0053407,0.11429,0.0795
-0.071565,-0.046235,0.0022889,-0.062715,-0.022126,0.037385,0.18051,0.064546
-0.043793,-0.051423,-0.080415,-0.094453,-0.013275,0.044099,0.082856,0.063325
-0.064546,-0.02182,-0.036469,-0.057527,-0.012665,0.045319,0.0071717,0.02945
-0.041352,-0.05539,-0.019684,-0.028534,-0.027008,0.04654,-0.041962,-0.0090028
0.0071717,-0.082246,-0.018769,-0.065156,-0.012665,0.035554,-0.07187,-0.0010681
0.044099,-0.11887,-0.028534,0.0077821,0.0065614,0.039216,0.11765,-0.014191
0.061189,-0.11063,-0.031891,-0.092622,0.06424,0.016938,0.11887,-0.029755
0.044099,-0.11154,-0.0013733,-0.2388,0.087434,-0.005951,0.16648,-0.067292
0.037385,-0.14542,-0.013886,-0.065461,0.025788,-0.02884,-0.15183,-0.095979
0.03006,-0.092622,-0.072175,0.037995,0.019379,-0.0056458,-0.15702,-0.045624
0.016938,-0.1796,-0.085298,0.032807,0.041047,0.01236,0.29831,-0.030365
-0.022736,-0.0044251,-0.11551,-0.089876,0.076753,-0.047761,-0.46281,-0.077058
-0.060578,0.14176,-0.13321,-0.13382,0.044099,-0.059968,-0.77745,-0.0074769
-0.033722,0.066682,-0.068513,-0.11307,-0.0206,-0.052033,0.14603,0.042267
-0.088045,0.16068,-0.10117,-0.1265,-0.019074,-0.011139,0.027619,0.043183
-0.10544,0.1326,-0.18418,-0.13443,-0.033417,0.06302,0.23148,0.086824
-0.10208,0.070344,-0.077058,-0.10452,-0.042878,0.023346,0.2211,0.10788
-0.091707,0.02121,-0.044709,-0.10697,-0.049897,0.046235,0.07187,0.10056
-0.045014,-0.07248,0.026703,-0.039521,-0.045319,0.041657,-0.084993,0.042267
-0.023651,-0.10056,0.060578,0.057221,-0.026398,0.032197,-0.014496,0.0096132
0.056306,-0.19089,0.07248,-0.087129,-0.0050355,0.027314,0.10819,0.010834
0.085603,-0.29587,-0.059052,-0.11337,0.041352,0.020294,0.22385,-0.027314
0.06302,-0.052644,-0.12161,-0.047456,0.068513,0.06424,0.49241,-0.091402
-0.024872,0.10361,-0.060883,-0.035248,0.045319,0.0972,0.49149,-0.07126
-0.072175,-0.026703,0.0056458,-0.034638,0.073701,0.023957,0.18448,-0.011444
-0.083467,-0.018769,-0.042573,-0.08835,0.080415,-0.15091,-0.94316,-0.049897
-0.012665,-0.070649,-0.02884,-0.1268,0.037385,-0.11978,-1.1315,-0.022431
0.042878,-0.20737,-0.11429,0.12985,-0.0062562,0.072175,0.41703,0.057832
-0.044404,0.00045777,-0.19028,-0.16617,0.010529,0.028534,0.35233,0.040131
-0.034333,-0.035859,-0.14878,-0.24582,0.022736,0.029145,0.10605,0.081331
-0.043488,-0.13748,0.028229,-0.08896,-0.0062562,0.042267,0.14389,0.13077
-0.10361,-0.024872,-0.15183,-0.10697,-0.019074,-0.023651,0.046235,0.016632
-0.13046,0.17777,-0.080415,-0.050202,-0.067292,0.018463,0.060578,0.019989
-0.12772,0.14176,-0.061799,-0.11795,-0.070954,0.033112,0.043183,0.051423
-0.082246,0.069123,-0.039826,-0.077668,-0.0795,0.034943,0.022126,0.087434
-0.032807,-0.03006,0.00076295,-0.040742,-0.020294,0.032197,0.020294,0.065461
-0.0032044,-0.079805,0.0071717,-0.030671,0.066377,0.012055,0.023957,0.031586
0.04593,-0.14633,0.01236,-0.068513,0.066682,0.0032044,0.023346,0.0068666
0.067903,-0.21469,-0.0096132,-0.06363,0.037995,0.014191,-0.0071717,-0.055695
0.090181,-0.14145,-0.053864,-0.048676,0.035554,0.0099184,0.009308,-0.059663
0.062409,-0.060883,-0.034028,-0.032502,0.036164,-0.0010681,0.0038148,-0.074006
0.00045777,-0.048981,-0.042573,-0.076753,0.052949,-0.013886,-0.040742,-0.095369
-0.0062562,-0.0383,-0.061799,-0.08072,0.036164,0.010834,0.009308,-0.04593
-0.021515,-0.034333,-0.044709,-0.032197,0.0090028,0.014496,0.027619,-0.0080873
-0.059663,0.0071717,-0.10544,-0.0383,0.024262,-0.0068666,0.0065614,-0.017548
-0.076753,0.043488,-0.1146,-0.092927,0.033112,-0.025788,-0.019684,-0.018158
-0.14054,0.14389,-0.12314,-0.14481,0.031281,-0.040436,0.0047303,-0.019379
-0.083772,0.021515,-0.14878,-0.14084,-0.036774,0.026703,0.16953,0.056611
0.0016785,-0.0065614,-0.053864,-0.085908,-0.064851,0.029145,0.11612,0.10086
-0.025177,-0.044709,-0.076753,-0.074311,-0.029755,-0.015106,-0.071565,0.041962
-0.069734,0.053254,-0.085298,-0.12161,0.023651,-0.062104,-0.26108,0.061189
-0.075227,-0.011749,-0.010834,-0.13169,0.023346,-0.025483,-0.22324,0.13901
-0.049897,-0.045319,-0.011749,-0.074922,-0.032197,0.11337,0.16159,0.12467
0.0013733,-0.10544,0.050813,0.017548,-0.040742,0.10056,0.24826,0.070649
-0.010224,-0.11551,0.0035096,0.02182,0.019989,0.014496,0.048981,0.017243
0.04593,-0.11582,-0.032807,-0.066377,0.040131,0.0065614,-0.016327,-0.0080873
0.010834,-0.022736,-0.036774,-0.10483,0.052338,-0.013275,-0.039216,-0.071565
-0.0047303,-0.11765,-0.040436,-0.071565,0.057832,0.020905,0.042267,-0.086213
0.014801,-0.16037,-0.096284,-0.050202,0.033722,0.023346,0.0028992,-0.04654
-0.02121,-0.032197,-0.13901,-0.10788,0.03769,-0.019989,-0.042573,-0.096895
-0.064851,0.0047303,-0.082856,-0.10117,0.02121,-0.0096132,-0.0096132,-0.059358
-0.1265,0.017853,-0.054475,-0.081025,0.0050355,-0.0047303,0.0013733,-0.0080873
-0.069123,0.05417,-0.11673,-0.13138,-0.017548,0.01297,-0.018463,0.040131
-0.070649,-0.036774,-0.059358,-0.078279,-0.05478,0.016632,-0.034943,0.094453
-0.081941,-0.0013733,-0.07126,-0.028229,-0.041657,0.015412,-0.042878,0.103
-0.074006,0.065156,-0.093538,-0.095674,0.0086976,0.0013733,0.040436,0.078279
-0.091096,0.18479,-0.10269,-0.10941,-0.026398,0.018769,0.034333,0.052949
0.012055,-0.034943,0.016327,0.030976,-0.051728,0.040131,0.085603,0.082856
0.040436,-0.034028,-0.054475,-0.16007,0.015412,0.06424,0.10483,0.029145
0.029145,-0.10544,-0.012665,-0.1091,0.038911,0.016632,0.0053407,-0.038605
0.045319,-0.18387,0.0083925,-0.041047,-0.0022889,-0.023041,-0.045319,-0.002594
0.10025,-0.33005,-0.029145,-0.039216,0.041047,-0.027619,-0.016632,-0.017548
0.046235,-0.05478,-0.005951,-0.037385,0.059968,-0.013275,-0.0032044,-0.034943
0.015717,-0.060273,-0.054475,-0.0013733,0.042267,0.005951,-0.020905,-0.064851
0.0019837,0.0065614,-0.04654,-0.017243,0.060578,-0.0022889,-0.0032044,-0.060578
0.0090028,-0.058137,-0.040131,-0.074922,0.065766,-0.027008,-0.043793,-0.11917
-0.028534,-0.088045,-0.066682,-0.073091,0.033722,-0.0090028,-0.039521,-0.081636
-0.017548,-0.070649,-0.063325,-0.0795,0.026093,0.013886,0.037079,-0.016938
-0.043488,-0.049897,-0.1091,-0.11276,0.012665,0.014191,0.017243,0.049897
-0.093843,0.036469,-0.14511,-0.11704,-0.0062562,0.021515,0.03006,0.079194
-0.15305,0.12741,-0.14267,-0.12924,-0.0206,0.015412,0.033112,0.049897
-0.075837,0.009308,-0.074311,-0.10666,-0.043488,0.022126,0.041962,0.098421
-0.10697,0.11826,-0.063325,-0.11124,-0.057527,0.019989,0.032807,0.099031
-0.12314,0.11185,-0.068208,-0.071565,-0.045319,0.030365,0.024262,0.082246
-0.083467,0.010224,-0.002594,-0.0065614,-0.026703,0.048676,0.060578,0.052949
-0.037385,-0.028229,-0.02182,-0.01236,0.013581,0.0077821,0.037995,-0.010529
-0.014801,0.046235,-0.048371,-0.087739,0.03769,-0.0035096,0.04593,0.0068666
0.02884,-0.080415,-0.015412,-0.18509,0.0090028,0.02121,0.062104,0.040131
0.031281,-0.16556,0.0038148,-0.24399,-0.014191,0.044709,0.040436,0.067292
0.056001,-0.215,0.0019837,-0.12345,0.024872,0.022736,-0.082246,0.019379
0.092317,-0.25071,-0.090181,-0.045319,0.045014,0.0047303,0.037995,-0.025788
0.090486,-0.1677,-0.084688,0.34775,0.061799,-0.028229,-0.08896,-0.12436
-0.01297,0.0795,-0.10147,-0.21286,0.12161,-0.055085,-0.20249,-0.16098
-0.0074769,0.011139,-0.031586,-0.086824,0.032807,-0.012055,-0.074617,-0.10025
-0.022431,-0.14237,0.0013733,-0.058747,-0.047456,0.036469,-0.0032044,-0.047761
-0.081331,-0.042878,-0.002594,-0.087434,0.02121,-0.0038148,0.00076295,-0.030671
-0.069429,0.031281,-0.13321,-0.022431,-0.025788,0.002594,-0.022126,0.0041199
-0.070954,0.076448,-0.19028,-0.082246,-0.014496,-0.027008,-0.058747,0.081331
-0.094148,0.15946,-0.12955,-0.15854,0.01297,-0.02945,0.0096132,0.049897
-0.085908,0.095369,-0.075227,-0.16281,-0.046845,0.05539,0.32609,0.09659
-0.085298,0.032502,-0.056916,-0.082246,-0.056611,0.050507,0.44083,0.1268
-0.042878,0.014191,0.022431,-0.05478,-0.0047303,-0.0013733,0.37369,0.13107
-0.0019837,-0.0044251,-0.052644,-0.067597,-0.0019837,0.0083925,-0.075532,0.098726
0.023651,-0.081636,-0.044099,-0.0083925,-0.010834,0.0062562,-0.56565,-0.00015259
0.08072,-0.38773,0.028229,-0.010529,0.04593,-0.0041199,-0.73167,0.0074769
0.053254,-0.26444,-0.0041199,-0.082246,0.06424,0.032807,0.067597,-0.014801
-0.048981,-0.053559,-0.016022,-0.14786,0.016632,0.027924,0.20706,-0.081025
-0.091402,-0.12192,0.033417,-0.063325,0.0080873,0.024567,0.084077,-0.029145
-0.075227,0.041352,-0.10147,-0.03769,0.058137,0.015106,0.11093,0.0035096
-0.06302,0.14115,-0.066682,-0.09781,0.055695,0.0383,0.18479,0.0013733
-0.041352,0.018158,-0.096895,-0.051728,-0.0019837,0.043488,0.25437,0.0099184
-0.0068666,-0.13901,-0.085908,-0.086519,-0.0050355,0.042878,0.31876,0.036164
0.0096132,-0.078584,-0.074311,-0.083162,-0.0047303,0.016327,0.078279,-0.020294
0.0086976,0.068208,-0.1619,-0.10147,-0.011444,-0.070649,-0.81132,-0.016938
-0.079194,0.15732,-0.11093,-0.13169,0.019989,-0.10636,-0.22141,0.017548
-0.11734,0.11582,-0.053254,-0.11643,-0.0206,0.014801,0.018769,0.053559
-0.10391,0.033722,-0.1091,-0.087739,-0.068818,0.085908,0.15488,0.090181
-0.065766,-0.016022,-0.078279,-0.077058,-0.039826,0.041047,0.21103,0.070649
0.0068666,-0.060578,-0.046235,-0.06424,-0.014496,0.02945,0.077974,0.055695
0.026093,-0.023651,-0.0022889,-0.060883,-0.0068666,0.02121,0.077974,0.024262
0.048066,-0.1384,0.037995,-0.017548,0.019379,-0.0053407,-0.00045777,-0.0080873
0.061799,-0.16739,0.062715,0.0019837,0.076143,-0.026093,-0.090181,-0.041047
0.0071717,-0.069429,-0.044709,-0.042267,0.09659,-0.0080873,0.023651,-0.066682
-0.036469,-0.022126,-0.026398,-0.036469,0.06363,0.0077821,0.069123,-0.059663
0.019684,-0.13352,0.021515,0.017548,0.0099184,0.036469,0.034028,-0.029145
-0.0065614,-0.15702,-0.089265,-0.16556,0.0013733,0.053254,0.049592,-0.034333
-0.065766,-0.015717,-0.15976,-0.21347,0.075837,-0.049592,-0.024567,-0.072175
-0.031281,0.019379,-0.12436,-0.061799,0.018769,-0.0383,-0.032502,-0.024262
-0.034333,0.057527,-0.11856,-0.052338,-0.066987,0.010834,-0.0068666,-0.0044251
-0.066987,0.092622,-0.069123,-0.020905,-0.011444,-0.013886,-0.010834,0.00076295
-0.069429,-0.053559,-0.070039,-0.13657,0.035248,0.023041,-0.0022889,0.041962
-0.078279,0.022431,-0.10697,-0.1677,0.056306,0.049592,0.019684,0.09781
-0.031281,-0.072786,-0.046235,-0.06302,-0.036469,0.034333,0.050202,0.068208
0.023651,-0.066987,-0.099031,-0.075532,-0.06363,0.040131,0.30808,0.032197
-0.01236,0.039521,-0.085908,-0.12161,-0.02121,0.02121,0.23972,0.015717
-0.010224,-0.029755,-0.040436,-0.14115,-0.047761,0.042878,-0.053559,0.035248
0.010529,-0.13016,0.11002,-0.034638,-0.027619,-0.052949,-0.44724,0.019379
0.023651,-0.14694,-0.038605,0.017548,0.03769,-0.11093,-0.68864,-0.0083925
0.027924,-0.1265,0.036164,0.013275,0.063935,0.034028,0.068513,-0.020905
0.040131,-0.099641,-0.0795,-0.065766,0.069734,0.013886,0.30198,-0.067292
0.056306,-0.20157,-0.017548,-0.047456,0.03006,0.018769,0.10056,-0.05478
-0.019684,-0.076753,-0.040131,-0.10452,0.025177,0.036774,0.042878,-0.051728
-0.062715,0.0206,-0.064546,-0.24826,0.059663,-0.009308,-0.037079,-0.033112
-0.10575,0.027619,-0.052338,0.25681,0.036774,0.014496,0.063325,0.02945
-0.15488,0.084382,-0.093538,-0.25162,0.0206,0.0041199,0.059052,0.051118
-0.10941,0.083772,-0.10605,-0.1799,-0.056611,0.075532,0.098421,0.12192
-0.098116,0.077363,-0.20035,-0.064851,-0.069429,0.084688,0.11093,0.09781
-0.081636,0.12467,-0.16007,-0.055085,-0.0086976,-0.00015259,0.038911,0.039216
-0.07187,0.068513,-0.055695,-0.057221,-0.0086976,-0.011139,0.0019837,0.02121
-0.083162,0.039216,-0.095064,-0.098726,-0.0096132,-0.027314,-0.051728,0.010529
-0.070649,0.076753,-0.056001,-0.032807,-0.028229,-0.0035096,-0.029755,0.067292
-0.010224,-0.17044,0.049592,-0.16983,-0.029145,0.0206,0.070344,0.077668
0.030976,-0.27451,-0.061189,-0.12131,0.0074769,-0.0019837,0.075837,0.062409
0.019989,-0.11002,-0.015717,-0.069123,0.013275,0.013886,0.0099184,0.033417
0.027008,-0.070954,0.049897,-0.0065614,0.010529,0.048981,-0.0013733,-0.01297
0.077668,-0.15,0.00015259,0.042573,0.0383,0.016632,-0.027008,-0.063935
0.034943,-0.063935,-0.0013733,-0.014496,0.093843,-0.027008,-0.040742,-0.077668
-0.00015259,-0.092317,-0.016938,-0.062409,0.091707,-0.025788,-0.031891,-0.089876
0.02945,-0.12497,-0.078584,-0.062409,0.025177,0.023041,-0.002594,-0.08835
0.027008,-0.033722,-0.07126,-0.073091,0.033112,0.0053407,-0.035248,-0.1146
0.0071717,0.051423,-0.12039,-0.064851,0.036774,-0.022126,-0.048981,-0.085298
-0.034638,0.056611,-0.12284,-0.12436,-0.012665,-0.011139,-0.013275,0.018158
-0.06363,-0.0013733,-0.086519,-0.14298,-0.041962,0.002594,0.0056458,0.053864
-0.059052,-0.030976,-0.10971,-0.098421,-0.063325,0.023957,0.02884,0.089265
0.0074769,-0.091402,-0.053254,-0.049592,-0.0090028,-0.02884,0.04593,0.10269
-0.06363,0.12406,-0.075227,-0.10575,0.058442,-0.065156,0.021515,0.074617
-0.11917,0.12406,-0.1088,-0.12253,0.0035096,0.019989,-0.002594,0.061189
-0.091096,0.034333,-0.050813,-0.11063,-0.062104,0.051728,-0.048676,0.066682
-0.078889,-0.027314,-0.036469,-0.079805,-0.042573,0.044709,0.074006,0.035554
-0.063325,-0.075837,0.023957,-0.05539,-0.022431,0.024567,0.06363,0.012665
-0.020294,-0.11551,-0.027008,-0.057527,-0.0056458,0.045624,0.017853,0.012665
0.013886,-0.10666,0.0022889,-0.023651,0.017243,0.050507,0.048066,-0.01297
-0.00076295,-0.10941,-0.019074,0.022736,0.040131,0.011444,-0.089876,-0.040436
0.035248,-0.085908,-0.044099,-0.10941,0.077974,-0.033722,-0.075837,-0.014191
0.06302,-0.15549,-0.021515,-0.09781,0.061189,-0.0022889,0.10849,0.019684
0.067292,-0.25681,-0.07126,-0.098421,0.017853,0.0013733,0.019989,0.014801
-0.037079,-0.032807,-0.0972,-0.10361,0.019989,0.0083925,0.029755,0.011749
-0.10636,-0.081636,-0.086519,-0.11124,-0.032197,0.028534,-0.028534,-0.030671
-0.051728,-0.015412,-0.035554,-0.011444,-0.024872,0.002594,-0.087739,0.0065614
-0.093233,0.25956,-0.20035,-0.078584,0.031586,-0.040436,-0.053864,0.0050355
-0.075532,0.18021,-0.14267,-0.121,0.025788,0.0053407,0.060578,0.0077821
-0.094453,0.15122,-0.10422,-0.1326,-0.018463,0.010529,0.1326,0.035554
-0.10544,0.14633,-0.069429,-0.068208,-0.014801,-0.020905,0.11521,0.013581
-0.061799,0.11521,-0.034333,-0.086519,-0.022431,0.016327,0.087434,0.041352
-0.046845,-0.084382,0.088655,-0.052949,-0.023346,0.012665,-0.002594,0.044404
0.011444,-0.21408,0.0086976,-0.036164,-0.019684,0.010529,-0.039521,0.023041
0.033417,-0.22232,0.018769,-0.0096132,0.018158,0.019379,-0.029755,0.017243
0.031891,-0.2385,-0.07187,-0.12894,0.056001,-0.011444,0.0090028,-0.083467
0.095674,-0.25467,-0.058442,0.31571,0.039826,0.0077821,0.21317,-0.043183
0.061189,-0.052644,-0.10727,-0.18784,0.11154,-0.0019837,0.15488,-0.037385
-0.018158,0.087739,-0.036164,-0.3093,0.03006,0.034638,0.11826,-0.0044251
-0.019074,-0.075837,-0.019074,-0.21195,-0.081025,0.058137,-0.2327,0.011749
-0.034333,-0.095979,-0.04715,0.012665,0.03769,-0.016938,-0.83085,0.0047303
-0.027619,-0.026093,-0.081025,0.041657,0.010529,0.018158,0.037079,0.055695
-0.043488,-0.011749,-0.074006,-0.043183,0.041962,-0.027008,0.08072,-0.010224
-0.034333,0.075532,-0.12833,-0.046845,0.035554,-0.017853,0.065461,-0.0010681
-0.11795,0.10758,-0.080415,-0.091096,-0.009308,0.00045777,0.10697,0.035554
-0.12985,0.11948,-0.11307,-0.15702,-0.013275,-0.010834,0.035248,0.069429
-0.10208,0.12772,-0.11246,-0.17075,-0.06363,0.048371,0.14694,0.12772
-0.092317,-0.018158,-0.062715,-0.17136,-0.099641,0.073701,0.1564,0.085603
-0.027619,-0.13901,-0.14481,-0.14786,-0.067292,0.057221,0.13718,0.065156
0.031891,-0.20676,-0.017548,-0.026093,-0.011444,0.023346,0.0383,0.035554
0.046235,-0.19974,0.15549,0.059663,0.011444,-0.005951,-0.30167,0.00045777
0.081636,-0.12345,-0.010529,0.022126,0.05417,-0.024262,-0.081636,-0.017548
0.080415,-0.1149,-0.099336,-0.041047,0.11765,-0.066072,0.094759,-0.096895
0.051728,0.014191,-0.056916,-0.04654,0.049897,-0.0056458,0.06302,-0.1384
0.022126,0.025177,-0.023957,-0.11948,-0.00076295,0.0099184,0.086213,-0.14786
0.047456,-0.19577,0.037995,-0.06424,0.011749,-0.011139,0.058137,-0.10788
0.011749,-0.069429,-0.046235,-0.078279,0.067903,0.010529,0.034028,-0.072786
-0.00015259,-0.033417,-0.086824,-0.031586,0.073701,0.023957,-0.35752,-0.062104
-0.070039,0.010224,-0.060273,-0.052338,0.023651,-0.015106,-0.21408,-0.016632
-0.15061,0.060273,-0.11643,-0.11368,0.03006,-0.015412,0.13809,0.08957
-0.19883,0.091402,-0.15457,-0.13901,0.0068666,0.016938,0.18509,0.18692
-0.21439,0.076143,-0.11734,-0.15061,-0.048676,0.06302,0.21317,0.17655
-0.11643,0.022126,-0.082856,-0.168,-0.063325,0.058442,0.10483,0.13016
-0.10849,0.11429,-0.099336,-0.009308,-0.060578,0.020905,0.04593,0.087434
-0.056916,0.02121,0.010224,-0.092317,-0.050813,0.023346,0.0071717,0.029145
0.0080873,-0.013581,-0.030976,-0.1796,-0.041962,0.024872,-0.011444,0.052949
0.017243,-0.081941,-0.054475,-0.058747,0.031281,-0.042267,-0.041962,0.010529
0.029755,-0.12222,-0.039826,-0.037385,0.0050355,-0.00076295,-0.0071717,0.029145
0.016938,-0.094759,0.022736,-0.05539,0.026703,0.0019837,0.002594,0.011749
0.059663,-0.12222,-0.03006,0.010529,0.059968,-0.0053407,0.0071717,-0.023346
0.022736,-0.097505,-0.035554,-0.04715,0.048066,-0.015412,0.0035096,-0.065156
0.015717,-0.14694,0.002594,-0.092317,0.018158,0.019074,0.0071717,-0.083772
0.041047,-0.17868,0.0016785,0.017853,0.017243,0.037079,0.03006,-0.085908
0.033417,-0.13901,-0.049897,-0.040131,0.073091,0.014191,0.015717,-0.067903
-0.0032044,-0.020294,-0.14084,-0.13382,0.0795,0.002594,0.088045,-0.0096132
-0.067292,0.16922,-0.15274,-0.1207,0.025788,-0.00015259,0.18845,0.010834
-0.10208,0.21195,-0.10666,-0.1146,-0.031281,0.02121,0.23758,0.03769
-0.057527,0.034028,-0.062409,-0.068208,-0.05539,0.03006,0.20676,0.059052
-0.0032044,-0.15854,-0.074922,-0.024262,-0.022431,-0.043793,-0.65354,-0.01236
-0.092927,-0.06363,-0.1445,-0.099336,0.016938,-0.074311,-0.71916,-0.035554
-0.093233,0.083467,-0.088655,-0.11368,-0.011444,-0.033417,0.11826,0.027619
-0.050813,-0.0022889,-0.10727,-0.090486,-0.06302,0.032197,0.10697,0.1149
-0.044404,0.005951,-0.028229,-0.10239,0.016632,0.036774,0.13016,0.074006
-0.087739,0.083772,-0.005951,-0.093233,0.016632,0.02121,0.07248,0.011139
-0.05539,0.026703,0.044099,-0.06424,-0.027008,0.034333,0.099641,0.016022
0.030365,-0.22843,0.00045777,-0.076753,-0.002594,0.025483,0.13077,0.024262
0.067903,-0.36393,0.0080873,-0.023346,0.0032044,0.030365,0.083772,-0.052644
0.05417,-0.20584,-0.070344,-0.10544,0.033112,0.019989,0.087739,-0.094453
0.067597,-0.12741,-0.066377,-0.044709,0.076143,-0.012665,-0.036469,-0.015412
-0.027314,0.0062562,-0.023651,0.005951,0.023041,0.066987,0.0068666,0.058442
-0.06302,0.066072,-0.068513,-0.080415,0.048066,0.032502,0.0032044,-0.02945
0.0016785,0.12222,-0.052949,-0.20584,0.039216,0.010834,0.00076295,-0.026398
-0.0074769,-0.030671,-0.048371,0.27451,0.0086976,0.0077821,0.14633,-0.0068666
-0.13046,-0.0065614,-0.10727,-0.21347,0.069123,-0.066072,-0.023041,-0.002594
-0.095979,0.02121,-0.098421,-0.13169,-0.043488,0.0019837,-0.12802,0.086519
-0.018158,-0.063325,-0.085298,0.052949,-0.082246,0.033417,-0.015412,0.090181
-0.0083925,-0.03006,-0.097505,-0.17197,0.034028,-0.050507,-0.017548,0.01297
-0.043183,0.12345,-0.13748,-0.19364,0.010834,-0.025177,-0.00076295,0.033722
-0.020294,0.065766,-0.055085,-0.10239,-0.059358,0.036164,0.14115,0.065156
-0.04654,0.053864,-0.016022,-0.066682,-0.051728,0.03006,0.21653,0.056001
-0.045319,-0.058137,-0.035859,-0.08072,-0.016632,0.016022,0.073396,0.051728
-0.002594,-0.11948,0.011749,-0.058442,-0.0050355,0.031281,-0.098421,0.05539
-0.0053407,-0.10483,-0.059968,-0.069123,0.016632,-0.0056458,-0.29618,-0.022126
-0.0080873,-0.084382,-0.056916,-0.01236,0.049287,0.0206,-0.14206,-0.020294
0.029755,-0.11002,-0.10483,-0.050202,0.031281,0.074617,0.17502,-0.022431
0.062104,-0.04593,-0.064851,-0.14298,0.040131,0.018158,0.078279,-0.1033
-0.00045777,0.04715,-0.062409,-0.068208,0.053864,-0.015717,0.03006,-0.10086
-0.073701,-0.1265,0.086213,-0.044099,0.07126,-0.041352,0.016632,-0.077668
-0.041962,-0.28824,0.0062562,-0.0383,0.050202,-0.06363,-0.062104,-0.013275
-0.035554,-0.14145,-0.056306,-0.024872,0.011139,0.0068666,-0.024262,0.043793
-0.10544,0.0047303,-0.11307,-0.16678,0.026703,0.022736,0.075532,0.011749
-0.10208,0.016327,-0.1799,-0.18143,-0.025483,0.025483,0.12711,0.071565
-0.085603,0.048371,-0.098116,-0.10361,-0.081331,0.087434,0.26139,0.14298
-0.061494,0.13535,-0.12161,-0.074922,-0.07126,0.040742,0.12009,0.10239
-0.093538,0.20462,-0.14755,-0.11673,-0.022126,-0.031281,0.014191,0.057221
-0.060883,0.087739,0.0044251,-0.012665,-0.0065614,-0.084688,-0.22354,0.039826
-0.0053407,-0.0074769,-0.00045777,0.077974,0.0032044,0.015106,0.019074,0.0053407
0.01297,-0.1207,-0.017853,-0.12161,0.084077,0.058747,0.24216,-0.017548
0.041657,-0.24582,0.07248,-0.103,0.040436,-0.0074769,-0.77409,-0.096895
0.045319,-0.10544,-0.00015259,-0.0972,-0.011139,0.0010681,-0.3447,-0.10178
0.044404,-0.16556,0.025483,0.025177,0.0096132,0.0047303,0.33616,-0.088045
0.035248,0.0053407,-0.10727,0.0077821,0.028229,0.0047303,0.12161,-0.089265
0.035554,-0.067903,-0.070649,-0.050813,0.078279,-0.0028992,0.057221,-0.082856
0.025177,-0.15244,-0.073396,-0.066377,0.043488,0.018158,0.054475,-0.030671
-0.028534,0.049287,-0.099031,-0.22782,0.023041,0.016022,0.0038148,0.009308
-0.04654,0.043488,-0.10727,-0.24369,-0.0071717,0.010224,0.0068666,0.014801
-0.0090028,-0.062409,-0.048066,0.0035096,-0.020294,0.0206,0.0016785,-0.024567
-0.081025,0.066072,-0.12741,-0.045624,0.0050355,0.0047303,-0.018769,-0.013581
-0.092012,0.014496,-0.053864,-0.043183,-0.024262,-0.0080873,-0.022126,0.017243
-0.092317,-0.002594,-0.11307,-0.11582,-0.021515,-0.015106,0.012055,0.087434
-0.17227,-0.082856,-0.034638,-0.13107,-0.016632,-0.0086976,0.1149,0.17319
-0.1265,-0.012055,-0.057832,-0.10178,-0.032502,0.024872,0.25162,0.24582
-0.095979,0.016022,-0.066987,-0.098726,-0.011139,0.044099,0.26963,0.215
-0.035248,-0.070649,-0.036164,-0.051728,-0.011139,0.046845,0.11154,0.14878
-0.024262,0.10361,-0.027924,-0.027619,-0.0074769,0.002594,-0.2327,0.061189
0.020905,0.15335,-0.04715,-0.045319,0.022126,0.0090028,-0.26749,-0.041047
0.068208,-0.019379,-0.016938,-0.05417,0.037079,0.059052,0.12436,-0.035554
0.047456,-0.19638,0.027924,-0.12528,0.04593,0.013275,0.031586,-0.10697
0.077668,-0.35752,-0.045014,-0.19303,0.032807,-0.0010681,-0.00045777,-0.10697
0.072786,-0.20005,-0.10666,0.26047,0.010834,0.016022,0.012665,-0.11612
0.048981,-0.21469,-0.038605,-0.15,0.084382,-0.032197,-0.044709,-0.16434
-0.025177,-0.0016785,-0.064851,-0.074617,0.056916,-0.018158,0.016938,-0.10819
-0.083772,0.08957,-0.10422,-0.077363,0.015717,0.012055,0.034333,-0.025788
-0.1384,0.13413,-0.11734,-0.10849,0.0032044,-0.0074769,0.010529,0.0096132
-0.15763,0.19455,-0.10758,-0.11337,-0.027619,-0.009308,-0.00076295,0.047456
-0.081941,0.02945,-0.070649,-0.10269,-0.04654,0.029145,-0.014496,0.058442
-0.0074769,-0.045624,-0.081941,-0.11032,-0.030365,0.016022,-0.019379,0.055695
-0.083467,0.049592,-0.052033,-0.11307,-0.026398,-0.0086976,-0.020294,0.029755
-0.08896,0.082246,-0.055695,-0.088655,-0.022736,0.0077821,0.017853,0.073701
-0.022431,-0.034638,-0.032197,-0.056306,-0.015412,0.0080873,0.054475,0.10605
0.013886,-0.18814,-0.0038148,-0.036774,-0.017243,0.028534,0.103,0.03769
0.029755,-0.30167,-0.038605,-0.051423,0.0038148,0.040131,0.11032,0.027619
0.045624,-0.15763,-0.062409,-0.079805,0.0099184,0.041657,0.11246,0.078584
0.047456,0.011444,-0.074922,-0.033722,0.014191,0.040436,0.090486,0.12711
0.0086976,0.066072,-0.092622,-0.14389,0.036774,0.016327,-0.29099,0.053254
0.010529,-0.0383,0.027619,-0.086824,0.045624,-0.036164,-0.33066,-0.055695
0.039521,-0.16373,0.074922,0.10239,0.052949,-0.014801,0.056306,-0.045014
0.034028,-0.1619,0.0016785,-0.0068666,0.17014,-0.02884,0.0019837,-0.09781
-0.0022889,-0.17166,-0.03769,-0.040131,0.096895,-0.017243,0.075837,-0.081331
-0.04715,-0.022431,-0.12985,-0.022431,0.0032044,0.019074,0.092622,-0.11002
-0.0047303,-0.018769,-0.08896,-0.29435,-0.034943,0.020294,0.017853,-0.10636
-0.091707,0.13748,-0.14176,-0.25711,-0.027008,-0.037995,-0.00045777,-0.069734
-0.16587,0.12345,-0.15457,-0.10513,-0.036469,-0.0074769,-0.0010681,0.0013733
-0.15366,0.11185,-0.098726,-0.042573,-0.044709,0.032197,0.025483,0.13443
-0.13931,0.086213,-0.08835,-0.052338,-0.047761,-0.0047303,0.033112,0.13413
-0.077363,0.048676,-0.049897,-0.057221,-0.061189,0.018769,0.069429,0.11276
-0.05539,-0.018463,-0.0096132,-0.042878,-0.00015259,0.056611,0.10239,0.12161
0.01297,-0.11887,-0.0016785,-0.055085,0.018769,0.041352,0.04715,0.087434
0.051728,-0.23148,0.01236,-0.073091,0.0074769,0.020905,0.04593,0.039216
0.055085,-0.20645,0.0022889,-0.040436,0.022126,0.030671,0.070649,0.016938
0.08011,-0.10849,-0.073091,-0.038911,0.034028,0.010529,-0.056611,-0.0086976
0.063935,-0.078279,-0.03006,-0.068208,0.046845,0.023957,-0.024872,-0.038605
-0.018158,-0.034333,-0.058747,-0.091707,0.029145,0.02884,0.034028,-0.10513
-0.032502,0.010529,-0.055695,-0.087129,0.0041199,0.02884,-0.026398,-0.10758
-0.039521,0.0053407,-0.06424,-0.13199,0.011139,0.0068666,-0.10941,-0.030976
-0.0972,0.10788,-0.084688,-0.044099,-0.0035096,-0.027924,-0.14633,-0.026703
-0.021515,-0.088655,-0.10147,-0.026398,-0.045319,0.01297,0.074311,0.024872
0.053864,-0.085908,-0.2211,-0.097505,0.040436,-0.031281,0.063325,0.022736
-0.018158,0.0080873,-0.033112,-0.10788,0.11765,-0.084077,-0.042573,-0.022431
-0.085908,0.023651,0.0206,-0.074617,0.020905,-0.0099184,0.0016785,0.0047303
-0.13382,0.10575,-0.085298,-0.14694,-0.034943,0.0044251,0.084077,0.048981
-0.10178,0.11154,-0.075227,-0.059052,-0.041047,-0.0032044,0.25132,0.083772
-0.07187,-0.080415,-0.035859,0.009308,-0.057527,0.012665,0.23148,0.10025
-0.071565,-0.0795,-0.040131,-0.080415,0.015717,0.021515,0.24949,0.079805
-0.059052,-0.020294,-0.036164,-0.12924,0.068513,0.045624,-0.11551,0.036164
-0.018463,0.015412,-0.016938,-0.074922,0.0086976,0.0044251,-0.88548,-0.017243
0.04715,-0.12802,-0.028229,-0.036164,-0.01297,0.0065614,0.022736,0.023041
0.047456,-0.15335,-0.043183,-0.049592,0.041352,-0.009308,0.14847,-0.041047
0.12924,-0.22965,-0.0035096,-0.043183,0.030365,0.045014,0.12161,-0.045624
0.1091,-0.16373,0.033417,-0.042573,0.011139,0.090791,0.32059,-0.045319
0.00045777,-0.070344,-0.062104,-0.082246,0.06302,-0.005951,0.027619,-0.073701
-0.051728,-0.0013733,-0.103,-0.11551,0.052338,-0.07126,-0.22751,-0.027619
-0.079805,0.099947,-0.12558,-0.10452,-0.010529,-0.045319,-0.34531,-0.013581
-0.13046,0.1738,-0.14237,-0.078889,-0.046845,0.05539,0.11765,0.018769
-0.13169,0.040131,-0.10971,-0.092927,-0.028229,0.031586,0.2266,0.066377
-0.094148,-0.0074769,-0.14633,-0.18112,-0.031281,-0.0071717,0.027314,0.059663
-0.062715,-0.039521,-0.088655,-0.13962,-0.028229,-0.017243,-0.036774,0.036164
0.01297,-0.21561,0.084077,-0.0083925,-0.016632,0.034333,-0.020905,0.052033
0.010529,-0.059358,-0.074922,0.012055,0.0016785,0.022126,0.077363,0.029145
-0.033112,0.074311,-0.024262,-0.08896,0.066377,-0.020905,0.027619,0.016022
-0.052949,-0.020905,0.005951,-0.071565,0.014801,0.049287,0.1207,0.07187
-0.065766,-0.047456,-0.024567,-0.078584,-0.010529,0.055085,0.24735,0.052033
-0.093538,-0.041962,-0.056001,-0.06302,-0.0065614,0.037995,0.13077,0.045014
0.012665,-0.048066,-0.0972,-0.034333,0.013886,0.017243,-0.078279,0.049592
0.066072,-0.095674,-0.066987,-0.10849,0.068513,-0.0056458,-0.14969,0.0010681
-0.010224,0.043793,-0.0041199,-0.099336,0.052338,0.011139,-0.030976,-0.06363
-0.079194,-0.022431,0.0047303,-0.085908,-0.0047303,0.083772,0.33646,-0.035248
-0.04654,-0.14694,-0.013581,-0.078889,-0.0022889,0.064546,0.31968,-0.033722
0.02884,-0.20768,-0.040131,0.22843,0.049287,-0.031281,-0.59617,-0.094453
0.10483,-0.081331,-0.24521,-0.024262,0.10208,-0.070039,-0.48264,-0.064546
0.082551,0.035554,-0.078889,-0.19669,0.017243,-0.034943,0.14786,-0.027619
-0.065156,0.21347,-0.12741,-0.1854,-0.044404,-0.023651,-0.27817,-0.053559
-0.14481,0.30961,-0.098726,-0.27604,-0.019379,0.023041,0.13779,0.047456
-0.14694,0.20279,-0.066682,-0.10452,-0.0019837,-0.015717,0.1854,0.068513
-0.065461,-0.13077,-0.038911,-0.039521,-0.025177,-0.01297,0.052033,0.07187
-0.0083925,-0.37095,0.0083925,-0.033722,-0.044709,0.016327,0.079805,0.076753
0.022126,-0.37766,0.027924,-0.037079,-0.022126,0.011444,0.040436,0.061189
0.075227,-0.35752,-0.041962,-0.031281,-0.012665,0.016327,0.043793,0.077974
0.067292,-0.096895,-0.027924,-0.035248,0.026703,0.005951,0.0038148,0.015717
-0.002594,0.063325,-0.078279,-0.073396,0.055085,0.0062562,0.0074769,-0.009308
-0.047761,0.13169,-0.030976,-0.040436,0.041047,0.013886,0.050202,-0.019684
-0.066987,0.015717,-0.034943,-0.0795,0.03769,0.013886,0.089265,-0.059968
-0.044709,-0.051423,0.024262,-0.05417,0.017243,0.051423,0.07126,-0.081636
-0.066682,-0.0062562,-0.095979,-0.10849,-0.0010681,0.051118,0.059968,-0.057832
-0.037079,-0.01236,-0.030976,-0.033417,0.018158,0.026093,0.011749,0.0016785
0.067597,-0.056306,-0.10819,-0.091402,0.056306,-0.032807,-0.033722,0.024262
-0.024567,0.028534,-0.12253,-0.16678,0.031281,-0.033722,-0.048676,-0.033112
-0.19669,0.12039,-0.11612,-0.21164,-0.049592,0.026703,-0.045319,0.020905
-0.19455,0.019684,-0.074922,-0.13443,-0.063935,0.061494,0.055695,0.19425
-0.12802,0.051423,-0.078279,0.17105,-0.031281,0.032197,0.065461,0.14206
-0.04654,0.085603,-0.042267,-0.15183,0.064546,-0.092317,-0.036469,0.026093
-0.019684,0.017243,-0.08957,-0.13138,0.0074769,-0.02182,-0.010529,0.026703
0.0080873,-0.062409,-0.080415,-0.14694,-0.019074,0.030365,0.066072,0.042878
0.07248,-0.10605,-0.048371,-0.10361,-0.022126,0.041657,0.11978,0.053254
0.071565,-0.048066,-0.019989,-0.079805,-0.02884,0.035248,0.031586,0.043488
0.0099184,-0.13382,0.040742,-0.0047303,-0.010224,0.034333,-0.012665,-0.012665
-0.026703,-0.17502,-0.022431,0.026093,0.024872,0.028229,-0.024262,-0.049897
0.039521,-0.15,-0.087434,0.015717,0.065156,0.012665,-0.022126,-0.039521
0.077974,-0.10483,-0.021515,-0.06424,0.04715,0.027008,0.028229,-0.061494
0.063325,-0.049592,-0.038605,-0.076448,0.083772,0.0065614,-0.028229,-0.12345
-0.0062562,-0.076143,-0.010529,-0.051728,0.0383,0.026398,-0.019684,-0.11643
0.022736,-0.11826,0.060578,-0.066377,-0.0019837,0.020294,-0.0090028,-0.067597
0.031281,-0.036774,-0.15457,-0.0068666,0.051423,-0.048981,-0.040436,-0.026398
-0.050507,0.062104,-0.10941,-0.045624,0.079805,-0.10269,-0.15457,-0.050813
-0.12985,0.16037,-0.14725,-0.19913,0.017243,-0.093233,-0.15274,0.0074769
-0.15305,0.21469,-0.12985,-0.18357,-0.051728,-0.015106,0.08835,0.076143
-0.18936,0.099336,-0.096895,-0.15763,-0.026398,0.044709,0.082551,0.13169
-0.11337,-0.057527,-0.10239,-0.11185,-0.02945,0.073396,0.070039,0.2089
-0.0206,-0.10544,-0.022126,-0.060273,-0.08896,0.081331,0.11978,0.17563
-0.035554,-0.0065614,-0.046235,-0.079194,-0.041657,0.044709,0.043793,0.069429
-0.049592,-0.070649,-0.029145,-0.083772,0.0016785,0.046845,0.11917,0.049592
0.027008,-0.14267,0.029755,-0.041657,-0.002594,0.034638,0.1735,0.067903
0.044099,-0.17227,-0.0080873,-0.019074,0.023346,0.021515,0.12985,0.05417
0.0032044,-0.094148,-0.049287,-0.051728,0.048981,0.010834,0.065766,-0.036469
0.013581,-0.08072,-0.07126,-0.068208,0.075227,-0.023346,-0.44114,-0.081331
0.0071717,-0.10208,0.020294,-0.083467,0.053559,0.026398,-0.22049,-0.064851
-0.021515,-0.073701,-0.076143,-0.082551,0.009308,0.061494,0.18357,-0.07126
-0.024567,0.0035096,-0.084077,-0.01236,-0.010834,0.037079,0.0080873,-0.057832
0.045624,-0.22171,0.064546,0.077058,0.0077821,0.015412,0.018769,-0.037079
0.011749,-0.041657,-0.099336,-0.18357,0.04593,-0.015106,0.015412,-0.063935
-0.045014,0.11917,-0.18997,-0.21592,0.058442,-0.044404,-0.028534,-0.042573
-0.048676,0.096284,-0.14572,-0.08896,0.0041199,-0.031586,-0.023041,-0.012055
-0.10544,0.13321,-0.10452,-0.045319,-0.032807,0.0028992,0.016022,-0.01236
-0.11856,0.11643,-0.12161,-0.1268,-0.02945,0.0022889,0.037079,0.025177
-0.057527,-0.025788,-0.031586,-0.12711,-0.046845,0.02884,0.082856,0.089265
-0.11185,0.072175,0.022126,-0.030671,-0.03769,0.030671,0.066377,0.11307
-0.098421,-0.096895,0.05417,-0.13901,-0.0032044,0.0062562,0.058137,0.076448
-0.046845,-0.099641,-0.0077821,-0.04654,-0.00015259,0.0047303,0.070039,0.053559
0.019074,-0.18601,-0.069123,0.027314,-0.014191,0.005951,-0.081636,0.059052
0.10086,-0.25254,-0.13718,-0.081331,0.032807,0.013886,-0.040742,0.040131
0.13504,-0.10483,0.010529,-0.04715,0.083772,-0.060578,-0.035859,-0.065766
0.13809,-0.074922,-0.043183,-0.028229,0.099336,-0.049287,-0.14328,-0.11124
0.034028,-0.070649,-0.017548,-0.06424,0.077363,0.051423,0.033722,-0.09781
-0.041962,-0.0022889,-0.053864,-0.061494,0.051118,0.025483,-0.0028992,-0.055085
-0.070954,0.043488,-0.059968,-0.099641,0.018769,0.037995,0.097505,0.019989
-0.083162,0.021515,-0.10056,-0.12253,0.009308,0.020294,0.11978,0.05539
-0.11643,0.043183,-0.10758,-0.12894,-0.045014,0.016327,-0.01297,0.065461
-0.13016,0.080415,-0.12314,-0.10636,-0.064851,0.028534,0.043183,0.069734
-0.08835,0.094148,-0.06424,-0.049592,-0.059968,0.035248,0.19669,0.082856
-0.060883,0.12039,-0.11765,-0.099336,-0.027314,0.014191,0.17929,0.072175
-0.095979,0.068513,-0.068818,-0.12436,0.0013733,-0.0022889,0.1445,0.065461
-0.028229,-0.21195,0.01236,0.0016785,-0.010224,-0.047761,0.011444,0.057832
-0.039216,-0.075532,-0.069123,-0.073396,0.019989,-0.074006,-0.16312,0.017243
-0.021515,-0.12833,0.005951,-0.041352,0.019379,0.04654,-0.035554,0.005951
0.0010681,-0.11154,-0.061189,-0.047456,-0.0028992,0.01297,-0.78477,-0.025788
0.0056458,-0.074922,-0.026093,-0.049592,0.031281,-0.013275,-0.14054,-0.00076295
0.016938,-0.084382,-0.031891,-0.06363,0.043793,0.037385,0.33677,-0.026703
0.016938,-0.022126,-0.027008,-0.081636,0.056916,0.042267,0.35691,-0.031891
-0.0080873,0.0044251,-0.016632,-0.047456,0.020905,0.0383,0.34379,-0.023041
-0.015412,-0.059663,-0.034028,-0.043488,-0.018463,0.037995,0.25559,-0.038605
-0.013275,-0.17685,-0.076753,-0.07248,0.021515,0.0053407,-0.015106,-0.077058
0.016938,-0.15152,-0.043183,-0.075532,0.088045,-0.059052,-1.162,-0.11917
0.0080873,-0.048676,-0.077974,-0.066377,0.05539,0.0028992,-0.30228,-0.049897
0.045014,-0.0044251,-0.091402,-0.095674,-0.014801,0.027314,0.40757,-0.0022889
-0.056611,0.17563,-0.14389,-0.10788,-0.025177,-0.026398,0.040131,0.00076295
-0.098421,0.10513,-0.14664,-0.089876,-0.032197,-0.014191,0.097505,0.05539
-0.083162,0.033112,-0.086213,-0.14603,-0.019684,0.029145,0.11185,0.11704
-0.089265,-0.025788,-0.037995,-0.14694,-0.050813,0.044709,0.11856,0.1146
-0.075227,-0.084993,0.0044251,-0.12161,-0.090181,0.030976,0.08835,0.097505
-0.099031,-0.020905,-0.070039,-0.02121,-0.066072,0.044404,0.074617,0.090486
-0.011444,-0.057527,-0.010529,0.012055,-0.0013733,0.033112,0.061494,0.084382
-0.019074,-0.052338,-0.0019837,-0.073396,0.059052,-0.00076295,0.042267,0.033112
0.0071717,0.054475,-0.040436,-0.005951,0.082551,-0.025483,0.019684,-0.03769
0.061494,-0.016022,0.02182,-0.034638,0.074617,0.043488,0.065766,-0.01236
0.09659,-0.23636,0.009308,-0.070649,0.087739,0.018769,0.052949,-0.05478
0.058442,-0.2565,-0.066682,-0.098726,0.057221,-0.019684,0.0032044,-0.074922
0.043488,0.0016785,-0.0795,-0.32181,0.026093,0.005951,-0.052949,-0.064546
0.031281,-0.084688,-0.094148,0.1091,0.011139,0.0041199,0.005951,-0.055695
-0.028534,-0.027619,-0.060273,-0.024567,0.04593,-0.020294,0.084382,-0.0795
-0.045624,-0.036164,-0.036164,-0.05478,0.0035096,0.029145,0.1561,-0.054475
-0.13413,0.15061,-0.14939,-0.1146,0.0090028,-0.0035096,0.0041199,-0.025788
-0.063935,-0.091707,-0.0383,-0.091402,-0.0065614,-0.037995,-0.14755,0.047761
-0.048981,-0.10086,-0.11765,-0.083772,-0.061189,-0.01297,-0.2681,0.13596
-0.085908,0.0038148,-0.11948,-0.058137,0.0047303,-0.019684,-0.18509,0.099947
-0.091402,0.10971,-0.095979,-0.092927,0.010529,0.037385,0.15,0.10483
-0.10117,0.10178,-0.048371,-0.076753,-0.013275,0.016327,0.085603,0.088655
-0.068208,0.048371,-0.070039,-0.095064,-0.03769,0.033417,0.047761,0.07187
-0.039521,0.0056458,-0.035859,-0.11795,-0.027619,0.050507,0.074311,0.050507
-0.037385,-0.043488,-0.033722,-0.054475,-0.00045777,0.042573,0.048981,0.002594
-0.0019837,-0.075532,0.010529,-0.026093,0.026093,0.017853,0.061189,-0.0062562
0.0032044,-0.027619,0.005951,-0.081025,0.055085,0.02121,0.04715,-0.035859
0.015717,-0.16342,0.066072,-0.046845,0.034333,0.042267,0.020905,-0.044404
-0.0041199,-0.40055,0.019684,-0.022431,0.0035096,0.038911,0.029145,-0.037385
-0.017548,-0.34653,-0.0383,-0.027314,0.045319,-0.015717,-0.035554,-0.047456
0.011139,-0.05417,-0.14389,-0.026703,0.051118,-0.0077821,-0.056611,-0.047761
0.016022,0.13809,-0.12558,-0.099336,0.067903,-0.023651,-0.056001,-0.073701
-0.039826,0.38285,-0.12528,-0.14664,0.06302,-0.03006,-0.0080873,-0.037079
-0.054475,0.20066,-0.092012,-0.14267,-0.0096132,0.012665,0.048981,0.044099
-0.10544,0.037995,-0.12528,-0.13504,-0.069429,0.044404,0.094759,0.095674
-0.069123,-0.0077821,-0.12039,-0.19181,-0.08072,0.042573,0.025177,0.13077
0.033417,-0.15824,-0.11704,-0.22416,-0.074006,0.025483,-0.034943,0.11551
-0.05539,0.0096132,-0.065766,0.25162,-0.033722,-0.0086976,0.061494,0.073701
-0.085908,-0.11673,-0.023041,-0.18875,0.024872,-0.031281,0.051118,0.059663
0.0080873,-0.14664,0.026703,-0.024567,-0.017243,-0.0028992,-0.091707,0.080415
0.052949,-0.14481,-0.050202,-0.017243,-0.019074,0.0086976,-0.16007,0.014191
0.049897,-0.038605,-0.0080873,-0.042878,0.040131,-0.014191,-0.085908,-0.083772
0.0038148,0.010224,0.031586,-0.0019837,0.030365,-0.0028992,-0.018769,-0.11612
0.067292,-0.20584,-0.019989,-0.14359,0.044404,-0.016938,0.043793,-0.078889
0.045014,-0.10147,-0.030365,-0.14603,0.087739,-0.058442,0.0053407,-0.094148
-0.012055,-0.058442,-0.023651,-0.045014,0.026093,0.018158,0.082856,-0.092012
-0.068208,-0.023346,-0.029145,0.011139,0.016022,0.095979,0.16953,-0.050813
-0.078889,-0.0038148,-0.051728,-0.064546,0.059663,0.040436,0.066682,-0.012055
-0.10056,-0.029755,-0.078279,-0.10666,0.051423,-0.040131,-0.07126,-0.02884
-0.094453,0.055695,-0.16495,-0.14755,0.06302,-0.063935,-0.041657,0.0099184
-0.081941,0.13413,-0.14115,-0.092317,0.025483,-0.031586,-0.01236,0.046845
-0.052949,0.0053407,-0.10727,-0.0383,-0.045319,0.029145,0.047761,0.034943
-0.088045,0.11154,-0.14481,-0.059052,-0.074922,0.037385,0.059052,0.065461
-0.08011,-0.02182,0.022126,-0.15488,-0.076143,0.036164,0.048371,0.090791
-0.090181,0.035859,-0.066072,-0.24765,-0.0096132,0.016632,0.034943,0.11185
-0.070954,0.030365,0.0047303,-0.074617,0.0041199,0.009308,0.02884,0.11917
-0.0032044,-0.050813,-0.076753,-0.0071717,-0.061494,0.060578,0.037079,0.12589
0.02945,-0.12985,-0.062104,-0.036164,0.02884,0.012665,-0.045624,0.098116
0.084077,-0.19821,0.049897,0.016938,0.045014,0.034943,-0.019074,0.039521
0.016938,-0.11948,0.01236,-0.036774,0.056306,0.030976,0.014801,-0.033112
0.047761,-0.18967,0.0019837,-0.031586,0.045319,0.0090028,-0.060578,-0.056611
0.025788,-0.103,-0.04715,-0.054475,0.025177,0.0383,-0.08835,-0.070649
0.0065614,-0.039826,-0.056916,-0.048981,0.051728,0.033112,0.013581,-0.1091
0.0065614,-0.0077821,-0.074617,-0.0795,0.023346,0.012055,0.12284,-0.061189
-0.014801,-0.0038148,-0.10422,-0.10086,0.024262,-0.014191,0.17105,-0.035554
-0.050813,0.016022,-0.095369,-0.095674,-0.00015259,-0.0074769,0.11795,0.0099184
-0.1146,0.085298,-0.11551,-0.11521,-0.0096132,-0.044099,-0.34562,0.029755
-0.1445,0.10361,-0.14481,-0.11734,-0.034333,-0.00015259,-0.16861,0.087434
-0.11978,0.044404,-0.090181,-0.13138,-0.033112,0.022431,0.15305,0.14664
-0.035859,0.017548,-0.13565,-0.099947,-0.033417,-0.0071717,0.014191,0.11582
-0.02945,-0.012665,0.002594,-0.066987,-0.029145,0.0050355,0.005951,0.016022
-0.076753,0.099641,-0.064546,-0.11185,0.016938,0.0077821,0.036774,-0.033722
-0.054475,0.09781,-0.059052,-0.081025,-0.01236,0.068818,0.27329,0.0074769
0.0099184,-0.012665,-0.040436,-0.043183,-0.033722,0.079194,0.25559,0.017243
0.10422,-0.38956,0.065156,0.0096132,0.02182,0.0044251,0.051118,-0.023651
0.16129,-0.6862,0.0041199,0.00045777,0.070649,-0.088045,-0.24704,-0.074006
0.096284,-0.15,-0.084993,-0.040436,0.09659,-0.078584,-0.37034,-0.10544
0.064546,-0.016327,-0.058442,-0.069734,0.062104,0.024872,0.005951,-0.11612
0.0035096,0.074311,-0.0038148,-0.043183,0.059052,0.048981,0.3566,-0.11643
-0.0068666,-0.091707,0.030365,-0.024262,0.041657,0.024262,-0.13169,-0.11429
-0.070954,0.035248,-0.12558,-0.10758,0.042878,-0.050202,-0.88121,-0.084077
-0.13199,0.028534,-0.10758,-0.081331,0.0068666,0.018158,0.071565,0.069734
-0.10391,-0.040131,-0.052644,-0.13199,-0.0074769,0.053254,0.28977,0.16159
-0.088045,0.045319,-0.089265,-0.13993,-0.0086976,0.014191,0.082551,0.10575
-0.073701,0.10849,-0.14878,-0.10941,-0.075227,0.016938,0.11887,0.059968
-0.12131,0.15335,-0.097505,-0.12955,-0.043183,-0.019379,0.073701,0.065461
-0.13321,0.17227,-0.074922,-0.11398,-0.039826,-0.0050355,0.053254,0.08835
-0.11521,0.14115,-0.0795,-0.14054,-0.041047,0.013275,0.080415,0.057221
-0.08011,0.011444,-0.05478,-0.098421,-0.045624,0.018158,0.075837,0.051423
-0.0206,-0.11826,-0.04715,-0.029145,-0.047761,0.037385,0.11002,0.059358
-0.016632,-0.15274,-0.013886,-0.052338,-0.04654,0.058137,0.13535,0.05417
0.02121,-0.18387,0.022431,-0.068818,0.0086976,0.04715,0.077974,0.020905
0.070039,-0.24094,0.024262,-0.060578,0.090791,0.020905,0.025483,-0.023346
0.061494,-0.25345,0.10056,-0.0028992,0.10269,-0.031586,-0.074922,-0.078279
0.037385,-0.056001,-0.097505,-0.043488,0.094453,-0.06363,-0.14267,-0.093843
0.043793,-0.066072,-0.087129,-0.019074,0.039216,0.0044251,-0.020905,-0.066682
0.054475,-0.034943,-0.08011,-0.0035096,0.019379,0.02121,0.087434,-0.0044251
0.026703,-0.022431,-0.17166,-0.085603,0.029755,0.0041199,0.15824,0.0096132
-0.085298,0.11521,-0.10452,-0.084993,0.013581,0.010529,0.2092,0.022126
-0.088045,0.080415,-0.095064,-0.074311,0.015717,0.00045777,0.17502,0.035248
-0.073091,0.085298,-0.038911,-0.052338,0.0071717,-0.016022,-0.53635,0.022736
-0.13993,0.067292,-0.1088,-0.093538,-0.015106,-0.017548,-0.69078,0.025177
-0.11948,-0.0028992,-0.081941,-0.023651,-0.052949,0.038911,0.24155,0.10086
-0.11856,0.063935,-0.10269,-0.2031,-0.051118,0.028534,0.14237,0.089876
-0.091402,0.041962,-0.090791,-0.36057,-0.03769,0.0071717,0.091402,0.07187
-0.070954,-0.0206,-0.05417,-0.18112,-0.024872,0.027924,0.13535,0.0795
0.016938,-0.12833,-0.0041199,-0.0083925,0.0028992,0.048676,0.089876,0.060273
0.077974,-0.15671,0.068818,0.063325,0.0068666,0.02884,0.084077,0.027924
0.10819,-0.2269,0.044709,-0.0035096,0.031281,-0.0035096,0.05539,-0.0206
0.10056,-0.2089,0.059663,-0.0010681,0.068208,-0.0050355,-0.0086976,-0.091707
0.087434,-0.16983,-0.068818,-0.038605,0.044099,0.023346,-0.02884,-0.10513
0.092927,-0.017853,-0.057832,-0.034333,0.034943,0.020294,0.0065614,-0.097505
0.039521,0.013581,-0.070344,-0.070344,0.059358,-0.020905,-0.036469,-0.17807
-0.032502,0.023651,-0.091402,-0.097505,0.06302,-0.046235,-0.068818,-0.1445
-0.037385,0.0022889,-0.094148,-0.1146,0.014801,-0.022736,0.0080873,-0.026398
-0.035248,-0.097505,-0.068208,-0.06424,0.0038148,-0.031891,0.046235,0.034028
-0.10452,0.058442,-0.10117,-0.059663,0.017243,-0.020294,0.036774,0.057221
-0.168,0.10819,-0.10666,-0.13138,-0.012055,0.0032044,0.071565,0.087434
-0.18173,0.051118,-0.08835,-0.099947,-0.024872,0.019074,0.080415,0.11063
-0.13931,0.092012,-0.10971,-0.121,-0.042573,0.016327,-0.034943,0.10147
-0.049287,0.019074,-0.086824,-0.13687,-0.014191,-0.00015259,-0.075532,0.088655
-0.048371,-0.042573,-0.058442,-0.079805,-0.067292,0.030365,-0.10544,0.074617
0.030976,-0.20035,-0.020294,0.0053407,-0.077058,0.045014,-0.053559,0.051423
0.030365,-0.18021,-0.0206,-0.076753,0.0047303,0.057527,0.077974,0.05417
0.0090028,0.0022889,0.011444,0.22873,0.12558,0.026703,0.02945,-0.02121
-0.0086976,-0.037385,-0.026093,-0.28763,0.067292,0.018769,0.017243,-0.050507
0.048981,-0.092927,-0.074311,-0.11368,-0.010224,0.02884,0.042878,-0.019379
0.057527,-0.021515,-0.016632,-0.031586,0.032197,-0.0080873,0.05539,-0.018463
-0.015717,-0.11185,-0.028534,-0.064546,0.051118,-0.050507,0.03006,-0.035859
-0.067597,-0.18235,-0.042573,-0.17533,0.023346,-0.021515,-0.028229,-0.043793
-0.020905,-0.1088,-0.032502,0.30503,-0.033722,0.018769,-0.072175,-0.048676
-0.079194,0.047761,-0.12314,-0.21836,0.032197,-0.02945,-0.10697,-0.077668
-0.08957,0.16587,-0.10819,-0.19089,0.035554,0.02121,-0.018158,-0.05478
-0.053254,0.11185,-0.10361,-0.12039,-0.04593,0.070954,0.085908,0.051118
-0.056001,0.060578,-0.067292,-0.075532,-0.049897,0.034943,0.10849,0.095674
-0.077974,0.085603,-0.11124,-0.047456,-0.019684,0.034333,0.15915,0.1091
-0.073091,0.026093,-0.14847,-0.10178,0.051423,-0.034943,0.043183,0.15
-0.077974,-0.074006,0.00076295,-0.088655,-0.002594,0.023041,0.033722,0.1503
-0.076753,-0.0086976,-0.083162,-0.15763,-0.041962,0.052949,0.078279,0.053864
-0.014801,-0.049897,0.019684,-0.16526,-0.042878,0.036469,0.031281,0.024262
0.057527,-0.22416,0.02182,0.056916,-0.026398,0.034638,0.08957,-0.0032044
0.084382,-0.16037,-0.01236,-0.054475,0.027619,0.01236,0.04654,-0.029145
0.10422,-0.14939,-0.066682,-0.009308,0.073396,0.009308,-0.035248,-0.077974
0.09781,-0.086519,0.013886,-0.010834,0.059052,-0.016327,-0.14328,-0.096284
0.041352,-0.061494,-0.064851,-0.04654,0.065156,-0.07187,-0.33066,-0.12131
0.013581,0.045624,-0.096895,-0.031586,0.030976,-0.011444,-0.1387,-0.10697
0.0071717,-0.084382,0.0053407,-0.06424,0.016632,0.019989,0.12772,-0.075532
-0.022126,-0.22751,0.030671,-0.082856,0.032197,-0.0056458,0.065766,-0.052949
-0.051423,-0.11551,-0.055695,-0.061799,0.052338,-0.016022,0.039826,-0.020905
-0.10056,0.058747,-0.1564,-0.059663,0.05417,-0.018769,0.0047303,0.019684
-0.069123,0.10575,-0.12711,-0.074311,-0.0028992,0.0041199,-0.031891,0.018769
-0.083467,0.10636,-0.13443,-0.27329,-0.06363,0.038605,-0.023346,0.031891
