-0.034943,-0.041962,-0.042573,-0.06302,-0.014801,-0.012055,-0.010834,0.087434
-0.015412,-0.08011,-0.044099,-0.079194,-0.0047303,-0.005951,-0.023041,0.082246
0.0056458,-0.087434,-0.032502,-0.059663,0.002594,0.044099,0.066682,0.034333
0.035248,-0.1268,0.00015259,-0.054475,0.017243,0.027924,0.045624,0.0038148
0.041352,-0.10452,0.002594,-0.045319,0.031281,0.017243,0.0099184,-0.022736
0.034943,-0.087739,-0.018769,-0.03006,0.027924,0.020294,0.039826,-0.029145
0.015106,-0.088045,-0.030671,-0.054475,0.040131,0.02945,0.03769,-0.039521
0.031891,-0.090181,-0.033722,-0.0972,0.05417,0.024567,-0.0083925,-0.090791
0.025177,-0.060578,-0.042267,-0.074311,0.045624,0.024567,-0.039216,-0.11246
-0.028534,-0.047456,-0.056001,-0.064851,0.041962,0.0022889,-0.036469,-0.068818
-0.065766,-0.026703,-0.098116,-0.075532,0.023651,-0.0010681,0.0071717,-0.042573
-0.099031,0.027314,-0.10727,-0.11734,0.016632,-0.039216,0.02121,0.0065614
-0.12985,0.062104,-0.10971,-0.1149,-0.0083925,-0.017853,0.062104,0.069123
-0.11856,0.044404,-0.087434,-0.1033,-0.041352,0.041352,0.11368,0.10239
-0.10544,0.036469,-0.10483,-0.097505,-0.04593,0.032197,0.057832,0.10452
-0.089265,0.047761,-0.096895,-0.099947,-0.034638,0.010529,-0.077668,0.082551
-0.064851,0.0080873,-0.07126,-0.095064,-0.048371,0.037385,-0.056916,0.070039
-0.02945,-0.02945,-0.062104,-0.0383,-0.033417,0.0099184,0.0068666,0.052338
0.014191,-0.082856,-0.023041,-0.015412,0.012665,0.00015259,-0.062104,0.045014
0.053559,-0.14542,0.034943,-0.11246,0.035248,0.044099,0.0016785,0.011749
0.052338,-0.19455,0.017853,-0.061189,0.02945,0.016327,0.0096132,-0.034333
0.061494,-0.12802,-0.015717,-0.051118,0.026093,-0.013886,0.023651,-0.048676
0.020905,-0.072175,-0.046235,-0.052338,0.044404,0.024262,0.13718,-0.027314
0.012055,-0.064546,-0.034028,-0.050813,0.040131,0.04654,0.29435,-0.021515
-0.011444,-0.049897,-0.052949,-0.059052,0.050507,0.011139,0.061494,-0.018463
-0.033417,-0.034638,-0.040131,-0.066987,0.054475,0.0053407,-0.22232,0.022126
-0.048371,-0.00076295,-0.086519,-0.082551,0.042878,-0.0013733,-0.0383,0.055085
-0.072786,0.038605,-0.121,-0.10941,0.025177,-0.018769,-0.36393,0.0010681
-0.10575,0.062715,-0.11887,-0.12314,-0.0053407,0.034943,0.027619,0.015106
-0.1442,0.0795,-0.10819,-0.11917,-0.018158,0.02121,0.1442,0.049592
-0.08072,0.073701,-0.10513,-0.092317,-0.025788,0.018769,0.01297,0.103
-0.064546,0.035554,-0.086519,-0.084993,-0.031281,0.014191,0.066072,0.10422
-0.062715,0.03006,-0.074617,-0.085603,-0.018463,0.0047303,0.016938,0.052338
-0.033112,-0.034943,-0.046235,-0.066682,-0.013275,0.0086976,0.016022,0.025177
-0.043183,-0.031586,-0.02884,-0.058747,-0.0062562,0.016327,0.056611,-0.0062562
0.0096132,-0.10208,-0.0074769,-0.045014,-0.012665,0.0071717,0.051423,-0.0206
0.088655,-0.17197,-0.0065614,-0.035554,-0.0062562,0.0050355,0.052033,-0.019379
0.082551,-0.15244,-0.012665,-0.034638,0.032197,-0.00076295,0.037385,-0.045624
0.066072,-0.13474,0.0047303,-0.044709,0.052033,-0.0022889,-0.0062562,-0.068208
0.043488,-0.083772,-0.0206,-0.064851,0.049287,-0.010834,-0.028534,-0.099641
0.043183,-0.081941,-0.026093,-0.044709,0.058442,-0.018158,-0.03769,-0.096895
0.026703,-0.052033,-0.063935,-0.062715,0.043183,0.0032044,-0.0086976,-0.052033
-0.024567,-0.034638,-0.074922,-0.092927,0.034333,0.00076295,-0.018463,-0.035248
-0.041352,-0.032197,-0.10208,-0.10849,0.016022,-0.0068666,-0.015412,-0.018769
-0.044404,-0.018769,-0.12039,-0.121,-0.01236,0.002594,0.0080873,0.0068666
-0.082856,-0.016022,-0.11276,-0.1088,-0.016632,-0.0019837,0.011444,0.025788
-0.10208,0.060578,-0.12345,-0.11185,-0.026398,0.0013733,0.012055,0.057527
-0.08896,0.060273,-0.048371,-0.069429,-0.028534,0.0041199,0.011749,0.094453
-0.10605,0.027314,-0.057832,-0.06302,-0.01297,0.0065614,0.03006,0.084382
-0.10697,0.014191,-0.099336,-0.11246,0.017853,0.017243,0.027924,0.10025
-0.049592,0.0032044,-0.060273,-0.089265,-0.010834,0.038911,0.063935,0.11429
-0.0035096,-0.034943,-0.032197,-0.073396,-0.032197,0.024262,0.078279,0.059968
0.011139,-0.050813,-0.034028,-0.059358,-0.0047303,0.015106,-0.0028992,0.025483
0.0035096,-0.08835,0.032502,-0.041657,0.025177,0.0022889,-0.071565,-0.0035096
0.010529,-0.084993,-0.014496,-0.047761,0.041657,-0.029145,-0.12619,-0.027008
0.020294,-0.097505,-0.023957,-0.045624,0.041047,0.026093,0.049592,-0.02884
0.015106,-0.092622,-0.036164,-0.045014,0.035248,0.040131,0.1326,-0.037079
0.00076295,-0.11093,-0.0065614,-0.048676,0.041657,0.010529,0.0099184,-0.0080873
-0.01297,-0.090181,-0.019989,-0.043183,0.041352,0.016327,-0.083772,0.015106
-0.027619,-0.0383,-0.08896,-0.078279,0.059052,0.0013733,0.012665,-0.02121
-0.055695,0.036164,-0.15396,-0.11368,0.024262,-0.0050355,0.0086976,-0.035248
-0.055695,-0.0016785,-0.088045,-0.0022889,-0.029755,0.011139,0.005951,-0.030671
-0.08011,0.031281,-0.095979,-0.14542,-0.0062562,-0.019684,-0.00045777,-0.048676
-0.095064,0.061494,-0.096284,-0.1854,0.00045777,-0.029755,0.002594,-0.049592
-0.099947,0.093233,-0.10758,-0.13657,-0.030365,0.0083925,0.076753,0.00076295
-0.053254,0.024262,-0.07126,-0.11185,-0.027619,0.044099,0.24582,0.10971
0.021515,-0.053559,-0.051118,-0.06424,-0.045319,0.051118,0.22782,0.15427
0.016938,-0.09659,-0.042573,-0.045014,-0.020294,0.0065614,0.13931,0.10147
-0.0080873,-0.081636,-0.030976,-0.069734,0.043183,-0.0035096,-0.11032,0.048981
-0.023346,-0.018158,0.0099184,-0.051118,0.02884,0.0010681,-0.81193,0.030365
-0.033112,-0.075837,-0.012055,-0.075227,0.019989,0.03006,-0.087434,0.014801
-0.041657,-0.11032,-0.0080873,-0.050813,0.021515,0.0383,0.29618,-0.031586
-0.032807,-0.081636,-0.032502,-0.057527,0.023346,0.011139,0.091707,-0.02121
0.015412,-0.083772,-0.030976,-0.04715,0.026093,0.037385,0.035859,-0.043488
0.015412,-0.077363,-0.044404,0.0065614,0.010529,0.016022,0.019989,-0.070649
-0.0013733,-0.05417,-0.059968,-0.033722,0.066682,-0.10361,-0.018463,-0.067597
-0.0086976,-0.026398,-0.092927,-0.095064,0.075532,-0.014801,0.010529,-0.016327
-0.037385,0.014496,-0.098421,-0.13107,0.00076295,0.031281,0.059358,0.028229
-0.059968,0.023651,-0.10086,-0.11948,-0.02945,0.0071717,0.036164,0.046845
-0.08072,0.035248,-0.10147,-0.11521,-0.024872,-0.011444,0.013581,0.028229
-0.083467,0.013886,-0.081025,-0.10758,-0.032502,-0.0050355,0.014801,0.046235
-0.043183,-0.0206,-0.10025,-0.082856,-0.02884,0.012055,0.017243,0.076143
-0.045014,0.017853,-0.096895,-0.11246,-0.01236,0.013886,0.036164,0.055085
-0.035248,0.0041199,-0.049897,-0.09781,-0.0074769,0.021515,0.04715,0.046845
-0.022736,-0.013581,-0.040436,-0.075532,-0.016938,0.036164,0.029755,0.066682
-0.031281,-0.055695,-0.021515,-0.047456,-0.012665,0.058442,0.030976,0.066072
0.022126,-0.099947,0.00045777,-0.036164,0.0016785,0.035554,0.024262,0.010529
0.043183,-0.11185,0.0022889,-0.042267,0.026703,0.019074,0.0080873,-0.016938
0.013275,-0.07187,0.0038148,-0.042878,0.048066,0.016632,0.061189,-0.018769
0.026703,-0.084688,-0.022431,-0.038911,0.051423,0.018769,0.18173,-0.014801
0.060578,-0.13748,-0.016632,-0.0086976,0.047761,0.023041,0.18357,-0.041047
0.029755,-0.10391,-0.082551,-0.026093,0.059968,-0.01297,0.16129,-0.084077
-0.024567,-0.036774,-0.075837,-0.16251,0.074006,-0.057527,-0.43412,-0.1323
-0.040742,-0.0096132,-0.10971,-0.10269,0.04715,-0.057221,-0.75242,-0.099947
-0.056916,0.0065614,-0.092622,-0.082856,-0.015106,0.048371,0.1857,-0.011139
-0.08896,0.04593,-0.10422,-0.11032,-0.015717,0.050202,0.16495,-0.013581
-0.10025,0.090486,-0.12894,-0.1207,-0.035248,0.034333,0.10208,0.044404
-0.10849,0.060578,-0.12619,-0.10544,-0.039216,-0.0062562,0.10575,0.02182
-0.1091,0.028229,-0.050507,-0.057527,-0.033722,-0.045319,-0.058747,0.051423
-0.082856,0.020294,-0.077363,-0.043183,-0.021515,-0.00076295,-0.031891,0.10788
-0.023041,-0.057832,0.013275,-0.070649,0.014801,0.016022,0.11063,0.12406
-0.012055,-0.05417,-0.040436,-0.103,0.015717,0.0013733,0.077974,0.079805
0.015106,-0.090791,-0.016632,-0.10513,-0.020905,0.049287,0.097505,0.056001
0.037385,-0.10361,-0.0099184,-0.055085,-0.029145,0.064546,0.11368,0.02884
0.0068666,-0.095674,-0.019074,-0.055085,0.013581,0.0065614,-0.08957,-0.048676
0.023651,-0.11093,-0.017548,-0.044404,0.034028,0.0083925,-0.049897,-0.04654
0.012665,-0.11368,0.022736,-0.027314,0.03769,-0.0077821,0.053254,-0.053864
0.0041199,-0.13993,-0.012055,-0.055085,0.058137,-0.052033,-0.25956,-0.088045
-0.0090028,-0.086519,-0.081025,-0.083162,0.060273,0.032502,-0.074922,-0.060883
-0.035859,-0.0077821,-0.090791,-0.097505,0.030976,0.059358,0.24155,-0.017243
-0.043793,0.028534,-0.10758,-0.060883,-0.0028992,0.016938,0.12039,0.017548
-0.016938,-0.0041199,-0.12314,-0.076753,0.0068666,0.010834,0.14328,0.029145
-0.058747,0.014191,-0.067903,-0.046235,0.010834,-0.025788,-0.1503,0.013886
-0.12161,0.092317,-0.1268,-0.09781,0.0050355,-0.0383,-0.36454,0.034028
-0.16007,0.10605,-0.11215,-0.11398,-0.0206,0.0206,0.089265,0.11612
-0.15824,0.081636,-0.08957,-0.12345,-0.034943,0.047456,0.11826,0.1268
-0.07187,0.011444,-0.053254,-0.096895,-0.02884,0.035248,0.072786,0.11002
-0.0047303,-0.030671,-0.041962,-0.074617,-0.015412,0.031586,0.08011,0.088045
0.042878,-0.071565,-0.02884,-0.053559,-0.0041199,0.013275,0.043488,0.05539
0.051728,-0.10971,-0.01297,-0.10361,-0.0019837,0.00076295,0.0053407,0.019684
0.041352,-0.11795,-0.024872,-0.070344,0.022126,-0.0035096,-0.00015259,-0.020294
0.051728,-0.1088,-0.0099184,-0.02884,0.026093,0.0038148,0.014801,-0.034943
0.063325,-0.13291,0.02182,-0.023346,0.03769,0.025483,0.011444,-0.056001
0.041047,-0.10361,-0.018158,-0.055085,0.063325,0.0022889,-0.015106,-0.11063
0.0028992,-0.066377,-0.059968,-0.068513,0.059052,-0.013581,-0.028229,-0.09781
-0.016327,-0.065766,-0.060273,-0.059052,0.023041,0.0032044,-0.0047303,-0.043793
-0.038605,-0.034333,-0.030671,-0.052949,0.022736,0.0038148,0.023346,-0.036469
-0.061799,0.011444,-0.10452,-0.073396,0.041962,0.0019837,0.027619,-0.002594
-0.059052,0.020294,-0.12863,-0.13291,0.0086976,0.015412,0.019684,0.059663
-0.091707,0.027924,-0.11917,-0.11185,-0.012665,0.0010681,0.023041,0.10361
-0.081636,0.042573,-0.10697,-0.11368,-0.0074769,-0.0071717,0.027619,0.079194
-0.12406,0.091402,-0.10452,-0.1149,-0.024262,0.010834,0.023041,0.039826
-0.12772,0.087434,-0.081025,-0.093538,-0.034943,0.032502,0.042267,0.050507
-0.030365,-0.0028992,-0.04593,-0.079805,-0.042878,0.025483,0.044404,0.066377
0.02945,-0.056001,-0.032502,-0.070954,-0.020294,0.0013733,0.0013733,0.018769
0.051118,-0.08896,-0.0080873,-0.054475,-0.0053407,-0.024872,-0.0206,-0.018769
0.043488,-0.14664,-0.0019837,-0.044099,0.0099184,-0.013886,-0.083162,-0.014801
0.033417,-0.16861,-0.0077821,-0.04715,0.02945,0.036164,0.025177,-0.015106
0.046235,-0.16495,-0.015412,-0.046235,0.033417,0.036469,0.024262,-0.0050355
0.0099184,-0.14359,-0.023957,-0.041352,0.027314,0.036164,-0.042573,-0.0032044
-0.010224,-0.095674,-0.026093,-0.053254,0.033417,0.017853,0.010834,-0.062104
-0.091707,0.002594,-0.062104,-0.06302,0.04593,0.0071717,0.034333,-0.043793
-0.061799,-0.020294,-0.060273,-0.081636,0.041047,0.010529,0.020905,0.023346
-0.068818,0.002594,-0.098421,-0.083162,0.019989,0.01236,0.024872,-0.0013733
-0.067597,0.040131,-0.1091,-0.087129,0.026703,-0.00076295,0.016022,-0.04715
-0.088045,0.070039,-0.11612,-0.10452,0.015106,-0.019684,0.0099184,-0.019379
-0.095369,0.10422,-0.11093,-0.12863,-0.0035096,-0.014191,0.053254,0.046235
-0.059663,0.041352,-0.092622,-0.11978,-0.027314,-0.013581,0.035859,0.103
-0.030365,-0.00076295,-0.077363,-0.10452,-0.055695,-0.010224,-0.13779,0.11917
-0.015412,-0.042573,-0.068818,-0.094453,-0.050813,0.0090028,-0.043793,0.098421
-0.0041199,-0.017548,-0.04654,-0.1088,-0.035554,0.032502,0.040436,0.0383
0.027924,-0.048066,-0.025483,0.037385,-0.034638,0.064546,0.058137,-0.0013733
0.021515,-0.087739,-0.010224,-0.085298,0.0013733,0.042878,0.042878,-0.04593
0.0038148,-0.08072,-0.0083925,-0.091707,0.072175,-0.017853,-0.044404,-0.042573
0.011139,-0.10605,-0.019684,-0.024872,0.057221,-0.0041199,-0.010224,0.021515
0.019379,-0.11948,-0.016327,-0.025177,0.030976,0.010224,0.041962,0.023041
0.027008,-0.10239,-0.016938,-0.036164,0.044404,0.0068666,-0.0041199,-0.0062562
0.00045777,-0.096895,-0.016632,-0.035248,0.052949,0.0013733,-0.0053407,-0.038605
0.0032044,-0.074311,-0.044099,-0.063325,0.068208,-0.010834,-0.0090028,-0.053864
-0.033417,-0.016327,-0.069123,-0.083772,0.052949,-0.010834,-0.0065614,-0.043793
-0.093233,0.026703,-0.1091,-0.11124,0.011139,0.014496,0.016632,-0.018769
-0.10056,0.04593,-0.13657,-0.13291,-0.010224,0.018463,0.020294,0.042267
-0.081941,0.029145,-0.11154,-0.1088,-0.032807,0.031586,0.038911,0.088655
-0.077974,0.023346,-0.058137,-0.092317,-0.037385,0.002594,0.04654,0.059358
-0.074617,0.011139,-0.05417,-0.062715,-0.010529,-0.019684,0.020294,0.026093
-0.067292,0.025177,-0.11307,-0.10483,-0.014496,-0.016938,-0.0096132,0.028229
-0.052033,0.0077821,-0.077974,-0.10269,-0.018158,-0.019989,-0.025177,0.068513
-0.024872,-0.02182,-0.05417,-0.10544,-0.026703,0.020294,0.017243,0.077974
-0.0047303,-0.060883,-0.030365,-0.069123,-0.0074769,0.039216,0.030365,0.030365
-0.017548,-0.086824,-0.014801,-0.046845,-0.0010681,0.042878,0.023651,-0.011444
0.023041,-0.15427,-0.024872,-0.025177,0.0099184,0.033112,0.031586,-0.025483
0.023041,-0.12802,0.030671,-0.036774,0.023957,0.032197,0.0080873,-0.057221
0.0071717,-0.098726,-0.016327,-0.043488,0.040131,0.025177,0.0068666,-0.094148
0.051423,-0.056001,-0.037079,-0.054475,0.050202,0.024872,0.017853,-0.089265
0.020905,-0.028534,-0.06424,-0.06363,0.047761,0.01236,-0.0086976,-0.060883
-0.029145,0.005951,-0.084688,-0.072175,0.027619,0.013275,-0.018463,-0.065156
-0.050813,-0.0068666,-0.033112,-0.055085,0.017853,-0.013886,-0.015106,-0.032807
-0.053254,0.017853,-0.091402,-0.061799,0.040131,-0.11978,-0.035859,0.012665
-0.066987,0.044404,-0.081941,-0.078279,0.020905,-0.015412,0.047456,0.056611
-0.068818,0.0206,-0.12833,-0.17716,-0.028229,0.069123,0.072175,0.070039
-0.047456,0.032197,-0.11978,-0.12375,-0.043793,0.0090028,0.018769,0.070039
-0.035248,0.018463,-0.10544,-0.11521,-0.028229,-0.005951,0.081331,0.091707
-0.066682,0.009308,-0.084688,-0.097505,-0.014801,-0.02182,0.069123,0.084077
-0.054475,-0.026703,-0.04654,-0.066682,-0.041352,0.02884,0.19089,0.041047
-0.0074769,-0.086824,-0.031891,-0.022431,-0.033112,0.051728,0.20096,0.030365
-0.0032044,-0.1088,0.016632,-0.07248,0.023651,-0.011139,-0.6273,-0.023041
-0.010529,-0.070039,-0.0068666,-0.11917,0.015717,0.0099184,-0.48936,-0.046845
-0.0035096,-0.089876,-0.0028992,-0.0022889,-0.017548,0.060883,0.24033,-0.053254
0.025177,-0.10788,-0.014191,-0.043183,0.046845,0.048676,0.09659,-0.070954
0.016022,-0.094453,-0.050813,-0.078584,0.074311,0.070954,0.20127,-0.016632
0.011139,-0.10452,-0.024567,-0.074311,0.03769,0.026093,0.16129,-0.017548
0.0041199,-0.099336,-0.070954,-0.082246,0.026703,-0.013886,0.057221,-0.025788
-0.014191,-0.037995,-0.1323,-0.044099,0.012055,-0.056306,-0.055695,0.0032044
-0.036774,-0.0099184,-0.053254,-0.064851,0.040436,-0.092012,-0.38621,0.044099
-0.050813,0.0096132,-0.07248,-0.089265,0.056001,0.026398,-0.041047,0.10086
-0.066682,0.070039,-0.1146,-0.12436,0.015717,0.042267,0.18692,0.13443
-0.10819,0.088045,-0.10697,-0.11948,-0.023346,0.016632,0.0795,0.11093
-0.064546,0.021515,-0.052338,-0.056306,-0.042878,0.015412,0.084382,0.10056
-0.073091,-0.018769,-0.098726,-0.09781,-0.022126,-0.0099184,0.085298,0.095979
-0.081941,0.044404,-0.090486,-0.1207,-0.011444,-0.0086976,0.043793,0.036774
-0.038911,-0.03769,-0.027619,-0.084382,-0.035554,0.010834,0.036164,0.015412
0.0016785,-0.12375,0.0074769,-0.042267,-0.0013733,0.0022889,0.025788,-0.030976
0.0090028,-0.065461,-0.03769,-0.06363,0.027619,-0.016022,-0.00076295,-0.059052
0.010529,-0.062409,-0.010834,-0.05417,0.009308,0.0080873,0.0047303,-0.057832
0.045319,-0.1088,-0.022736,-0.041657,0.0032044,0.012055,-0.00076295,-0.06363
0.059968,-0.13016,-0.02884,-0.03769,0.025483,0.015106,-0.0071717,-0.089265
0.074617,-0.13565,-0.012055,-0.013581,0.053559,-0.0010681,-0.032807,-0.088045
0.051118,-0.14023,-0.036164,-0.042267,0.05417,-0.016938,-0.044709,-0.079194
0.005951,-0.066987,-0.070649,-0.099641,0.05417,-0.013581,-0.031281,-0.074006
-0.043488,0.019379,-0.074311,-0.093843,0.018158,0.010834,0.036164,-0.041047
-0.096284,0.053254,-0.10269,-0.10727,0.019074,0.019989,0.10544,-0.020294
-0.11185,0.082551,-0.11154,-0.10849,0.0010681,0.028229,0.10208,0.031891
-0.0972,0.080415,-0.10971,-0.103,-0.018769,0.019379,0.11521,0.084077
-0.10117,0.069734,-0.10697,-0.089876,-0.014801,-0.016022,-0.2739,0.083467
-0.11063,0.053254,-0.08011,-0.068208,-0.016632,-0.021515,-0.28977,0.064546
-0.12345,0.040742,-0.082856,-0.090791,-0.035248,0.010224,0.13413,0.11643
-0.10147,-0.0013733,-0.063935,-0.13352,-0.053864,0.037995,0.1091,0.12375
-0.059358,-0.03769,-0.042267,-0.10452,-0.041352,0.065156,0.10575,0.14267
0.0016785,-0.089876,-0.016327,-0.075837,-0.010834,0.061189,0.075532,0.13657
0.042267,-0.097505,-0.016327,-0.052338,0.00076295,0.042573,0.036164,0.033112
0.034943,-0.098116,-0.0041199,-0.02945,0.018769,0.0041199,0.051118,-0.04593
0.069429,-0.13474,-0.0090028,-0.03006,0.055695,-0.00015259,0.16709,-0.033112
0.069734,-0.13993,-0.01236,-0.03006,0.066072,0.018769,0.19974,-0.04593
0.06302,-0.10483,-0.031891,-0.05539,0.068513,0.0032044,0.19394,-0.084382
-0.012665,-0.072786,-0.053254,-0.11521,0.041962,-0.017243,-0.27909,-0.12039
-0.053864,-0.082551,-0.017853,0.05539,0.027314,-0.0383,-0.84947,-0.12039
-0.063325,0.011444,-0.103,-0.16403,0.052949,-0.00015259,0.064546,-0.026703
-0.051423,0.042267,-0.11063,-0.12528,0.050507,0.0080873,0.16922,0.013886
-0.08011,0.053559,-0.11368,-0.1033,-0.02884,0.026703,0.098421,0.040436
-0.10117,0.033417,-0.11368,-0.098421,-0.042573,0.027314,0.12436,0.075532
-0.081636,0.024567,-0.094148,-0.10452,-0.042573,0.018158,0.065156,0.098116
-0.054475,-0.0038148,-0.08835,-0.092317,-0.036469,-0.025788,-0.0068666,0.076753
-0.046845,-0.017853,-0.063935,-0.095064,-0.034943,-0.030365,-0.076753,0.0071717
-0.056916,0.017548,-0.048371,-0.078889,-0.027314,0.038605,0.069734,-0.0062562
-0.0041199,-0.027619,-0.034638,-0.070344,-0.014496,0.030671,0.076143,0.02121
0.042267,-0.11398,-0.02182,-0.078279,0.00045777,0.016938,-0.00076295,0.035248
0.042878,-0.095369,0.0056458,-0.048981,0.017243,0.010834,-0.030671,0.013886
0.023957,-0.085908,-0.0206,-0.015106,0.033112,0.00076295,-0.043488,-0.046845
0.023346,-0.092622,-0.010529,-0.016022,0.042267,0.023041,0.06363,-0.081636
0.029755,-0.11551,-0.023957,-0.035554,0.041962,-0.0022889,0.076143,-0.057832
0.046235,-0.103,-0.014801,0.015106,0.041047,-0.04593,-0.12802,-0.089265
0.019989,-0.075837,-0.07248,-0.05417,0.039521,-0.013275,-0.087434,-0.11337
0.0099184,-0.050813,-0.074311,-0.20401,0.057221,0.013275,0.064546,-0.056611
-0.031586,-0.027924,-0.092317,-0.1915,0.032807,-0.00015259,0.02182,-0.0080873
-0.047456,0.0022889,-0.10117,-0.050202,0.0074769,0.019379,0.041047,0.047761
-0.018769,0.0383,-0.10819,-0.074311,-0.00015259,0.027008,0.049287,0.05539
-0.058137,0.062104,-0.12467,-0.10239,-0.026398,0.01297,0.030976,0.074311
-0.12039,0.066072,-0.093538,-0.099336,-0.048676,0.0044251,0.010834,0.086824
-0.10849,0.026093,-0.092317,-0.10758,-0.043488,-0.00015259,0.025177,0.12711
-0.10697,0.014496,-0.0795,-0.11093,-0.039216,0.014496,0.039826,0.12406
-0.11063,0.017853,-0.058442,-0.093233,-0.053254,0.02121,0.050202,0.099641
-0.084993,-0.040436,-0.0062562,-0.041657,-0.043488,0.041352,0.044099,0.082246
-0.039216,-0.08011,-0.027924,-0.029145,0.019074,0.029145,0.017548,0.051423
-0.0028992,-0.12833,-0.029145,-0.024872,0.059663,0.012665,-0.0032044,-0.0032044
0.021515,-0.1857,0.0972,0.016632,0.069734,0.0032044,-0.018158,-0.017243
-0.015717,-0.097505,-0.020905,-0.042267,0.10086,-0.017853,-0.022736,-0.027619
0.012665,-0.077974,-0.052338,-0.061799,0.047456,0.0050355,-0.010834,-0.067292
0.017548,-0.08011,-0.049897,-0.064851,-0.0050355,0.036469,0.019074,-0.10208
0.0041199,-0.059663,-0.07126,-0.078889,0.0206,0.019074,-0.0044251,-0.084077
-0.01297,-0.018769,-0.086213,-0.094453,0.035554,-0.02121,0.0077821,-0.0044251
-0.048371,0.019074,-0.099336,-0.12436,0.019379,-0.0035096,0.027314,0.037995
-0.074006,0.036164,-0.11307,-0.12284,0.0019837,0.0068666,-0.0032044,-0.0041199
-0.072175,0.051728,-0.10605,-0.092317,-0.021515,-0.0047303,-0.018463,0.014191
-0.054475,0.057527,-0.11276,-0.093843,-0.024262,0.019074,0.0032044,0.044099
-0.014191,0.027924,-0.10147,-0.11978,-0.018158,0.050813,0.090791,0.046235
-0.03769,0.012665,-0.085298,-0.074311,-0.032502,0.048066,0.084077,0.039826
-0.0383,-0.013886,-0.061799,-0.10788,-0.027619,0.00045777,0.08957,0.067292
-0.040436,-0.031586,-0.028229,-0.087434,0.0074769,-0.0013733,0.20737,0.076448
-0.0022889,-0.038911,-0.026703,-0.053559,0.0047303,0.012665,0.14084,0.070344
0.011749,-0.04593,-0.0096132,-0.04715,0.023651,-0.039216,0.10391,0.034943
-0.0090028,-0.047456,-0.0080873,-0.050507,0.054475,-0.12833,-0.60472,-0.053559
-0.033112,-0.074006,0.022736,-0.061799,0.031281,0.014496,-0.58671,-0.062104
-0.028229,-0.10788,-0.0022889,-0.050813,0.0035096,0.092927,0.29892,-0.038911
0.013275,-0.12558,-0.040131,-0.064546,0.013886,0.05539,0.075227,-0.056001
0.031586,-0.12192,-0.040131,-0.051118,0.017853,0.04715,0.10849,-0.038605
0.0383,-0.10269,-0.070039,-0.050813,0.031586,-0.034028,0.1561,-0.065461
0.0047303,-0.037995,-0.099336,-0.079805,0.049897,-0.08072,-0.24186,-0.095979
-0.0010681,0.0019837,-0.11673,-0.083162,0.023957,-0.0080873,-0.1561,-0.059663
-0.046845,0.025788,-0.10758,-0.10117,0.0041199,0.010529,0.15793,0.013886
-0.099641,0.037995,-0.10636,-0.10086,-0.016632,0.0028992,0.028229,0.034333
-0.11521,0.049287,-0.10086,-0.084993,-0.049592,0.015412,0.060273,0.059052
-0.074922,0.026398,-0.078584,-0.12741,-0.053254,0.022431,0.094759,0.1091
-0.057832,0.015106,-0.080415,-0.13962,-0.047761,0.029145,0.10788,0.12284
-0.055695,0.012665,-0.06302,-0.095064,-0.031281,0.035554,0.094453,0.065156
-0.021515,-0.045624,-0.0383,-0.086824,0.0028992,0.021515,-0.073701,0.017243
0.015412,-0.083467,-0.0077821,-0.052338,-0.013275,0.016327,-0.068208,0.0035096
0.0050355,-0.099641,0.0032044,0.00076295,0.015412,0.005951,0.038911,-0.014801
0.02121,-0.11582,0.018769,-0.021515,0.08072,0.00076295,0.048981,-0.013275
0.034943,-0.10788,-0.014191,-0.0795,0.082246,0.011139,0.06363,-0.030976
0.029145,-0.098726,-0.038605,-0.088655,0.036164,-0.0080873,0.0050355,-0.040742
0.040436,-0.11398,-0.023957,-0.070344,0.033112,-0.010224,-0.03769,-0.013581
0.015412,-0.05539,-0.066682,-0.064546,0.051423,-0.0090028,-0.052644,0.022736
-0.051423,-0.0028992,-0.064851,-0.051728,0.042267,0.00076295,-0.0086976,-0.002594
-0.063325,-0.033417,-0.094148,-0.059358,0.011444,0.030976,0.079805,0.019379
-0.043183,0.0083925,-0.11978,-0.076448,-0.0053407,0.01297,0.051728,0.045319
-0.081025,0.049287,-0.094453,-0.091707,-0.0065614,-0.0062562,0.014191,0.0019837
-0.093843,0.059663,-0.1268,-0.11368,-0.016327,0.014191,0.029755,0.021515
-0.094453,0.04593,-0.10269,-0.11124,-0.038911,0.012055,0.016632,0.037079
-0.099947,0.043793,-0.058137,-0.085298,-0.040436,0.0041199,0.0080873,0.050202
-0.094453,0.015106,-0.058442,-0.099031,-0.019379,0.00045777,0.005951,0.015717
-0.067597,-0.0016785,-0.062409,-0.090486,-0.0071717,-0.0013733,0.0028992,0.018158
-0.02884,-0.030671,-0.03769,-0.055085,-0.015106,0.018463,0.019379,0.019989
0.012055,-0.08896,-0.014191,-0.052644,-0.00015259,0.031586,0.010529,0.0053407
0.032807,-0.12039,-0.010529,-0.053559,0.021515,0.031281,0.018769,-0.037385
0.052033,-0.13962,0.0053407,-0.053254,0.030976,0.025177,0.018158,-0.062715
0.058137,-0.16953,0.022126,-0.0383,0.035248,0.032197,-0.012055,-0.040742
0.061494,-0.14145,-0.038605,-0.05478,0.049592,-0.0041199,-0.045319,-0.058747
0.0383,-0.093843,-0.03769,-0.072175,0.054475,-0.01297,-0.041962,-0.063325
-0.064546,-0.0086976,-0.082856,-0.059358,0.039521,-0.00015259,-0.024262,-0.055085
-0.097505,0.023346,-0.103,-0.10788,0.029145,-0.013886,0.021515,0.0077821
-0.11215,0.035859,-0.12131,-0.12894,0.0013733,-0.019684,0.05417,0.10697
-0.081941,0.0383,-0.093538,-0.069123,-0.016632,0.0062562,0.078279,0.13016
-0.081941,0.049592,-0.10117,-0.070954,0.0053407,0.0090028,0.058137,0.12406
-0.074006,0.069734,-0.065156,-0.10483,0.0016785,0.0090028,0.017548,0.099641
-0.076143,0.095369,-0.10422,-0.05478,-0.032807,0.016022,0.011139,0.10208
-0.098116,0.016327,-0.095369,-0.15579,-0.057832,0.030976,0.019989,0.095369
-0.075532,-0.068513,-0.04654,-0.15579,-0.033417,0.050202,0.051423,0.10544
-0.025788,-0.13993,0.0083925,-0.019074,-0.022736,0.045014,0.043793,0.083772
0.014801,-0.13474,-0.069123,-0.036774,-0.00076295,0.02945,0.023346,0.019684
0.051118,-0.12741,-0.005951,-0.052949,0.035248,0.0071717,0.02182,-0.041352
0.067292,-0.1442,-0.0056458,-0.060578,0.040131,0.019074,-0.009308,-0.082856
0.050202,-0.078279,-0.0016785,-0.040436,0.048371,0.009308,-0.030671,-0.11948
0.048981,-0.076448,-0.031891,-0.040742,0.055085,-0.013581,-0.055085,-0.14633
0.053864,-0.076143,-0.044099,-0.052338,0.052033,0.014191,-0.031281,-0.10941
0.03769,-0.075837,-0.03006,-0.056306,0.041657,0.0019837,-0.0074769,-0.071565
0.00045777,-0.036774,-0.064546,-0.06363,0.018158,-0.013275,-0.049287,-0.053559
-0.032502,0.0032044,-0.076143,-0.073396,0.0206,-0.017243,-0.055085,-0.039521
-0.051118,0.024567,-0.10544,-0.095064,0.025483,-0.014801,-0.0032044,-0.0090028
-0.048676,0.049287,-0.1033,-0.10056,0.009308,-0.009308,0.017548,0.023957
-0.10025,0.085603,-0.10849,-0.11093,-0.020905,-0.0016785,0.0010681,0.022736
-0.084382,0.066377,-0.10269,-0.12985,-0.047456,0.0071717,-0.0013733,0.0206
-0.070954,0.057527,-0.094148,-0.10758,-0.045014,0.011444,0.038911,0.040131
-0.064546,0.017548,-0.066072,-0.10483,-0.052033,0.0062562,0.098116,0.040131
-0.085298,-0.0083925,-0.04715,-0.045014,-0.047761,0.024262,0.16495,0.081636
-0.082856,-0.065766,-0.064851,-0.077668,0.029145,0.061494,0.21775,0.11643
-0.01297,-0.096895,-0.00015259,-0.095369,0.059663,0.019074,-0.038911,0.1149
0.038911,-0.13413,0.0038148,-0.028534,0.019989,-0.032197,-0.39933,0.07248
0.019684,-0.14572,-0.015717,-0.030976,0.024872,0.025483,-0.021515,-0.015717
-0.015412,-0.04654,-0.0086976,-0.057527,0.048371,0.024872,0.11276,-0.069734
0.00045777,-0.057527,-0.027924,-0.056306,0.023957,0.010224,-0.030365,-0.040436
0.025788,-0.11826,-0.028229,-0.019074,0.002594,0.035554,-0.025483,-0.036469
0.0038148,-0.072175,-0.069123,-0.11734,0.019989,0.019379,0.063935,-0.030365
-0.057832,-0.044709,-0.051728,-0.10239,0.0206,0.010224,0.048371,-0.02121
-0.034638,-0.066682,-0.027619,-0.031281,0.0074769,0.016632,0.020294,0.019684
-0.052033,0.0022889,-0.13931,-0.079805,0.039216,-0.026398,-0.0086976,-0.023041
-0.081025,0.066377,-0.14267,-0.1268,0.0206,-0.0090028,0.026093,-0.011139
-0.079194,0.056001,-0.11887,-0.10147,-0.030365,0.01297,0.020905,0.074617
-0.053254,0.03769,-0.094759,-0.096284,-0.033417,0.027008,0.055085,0.11673
-0.041962,0.0077821,-0.06302,-0.092927,-0.019074,0.010834,0.025483,0.1149
-0.04654,-0.0083925,-0.039216,-0.063325,-0.0010681,-0.023346,-0.012665,0.075227
-0.034943,-0.049897,-0.062104,-0.079194,-0.0080873,-0.012055,-0.0013733,0.032807
-0.022126,-0.061799,-0.041962,-0.082246,-0.013275,0.027314,0.034028,0.0056458
-0.010834,-0.075837,-0.015717,-0.072786,-0.0028992,0.065766,0.13657,-0.012665
0.012055,-0.085908,-0.013581,-0.045624,0.0090028,0.069123,0.17624,-0.056611
-0.017243,-0.049592,-0.021515,-0.057527,0.015106,0.054475,0.13016,-0.082856
0.0035096,-0.053559,-0.011749,-0.048981,0.032197,0.00076295,-0.025788,-0.047761
0.0047303,-0.081636,-0.023041,-0.05417,0.045319,-0.068513,-0.32639,-0.067292
-0.00045777,-0.067903,-0.034028,-0.057527,0.047761,-0.087739,-0.36393,-0.084382
-0.037385,-0.044099,-0.076753,-0.084382,0.034943,-0.041352,0.050202,-0.051118
0.0065614,-0.087739,-0.070039,-0.051118,0.018769,0.048676,0.10605,-0.0096132
-0.02121,-0.043488,-0.057832,-0.02945,0.023346,0.023041,0.040436,0.0086976
-0.032807,0.04715,-0.13626,-0.12497,0.068208,-0.027924,0.015412,0.027314
-0.064851,0.04593,-0.095369,-0.12558,0.036774,-0.020905,0.0016785,0.094148
-0.047761,0.034028,-0.092012,-0.1149,-0.028534,0.024872,0.059358,0.1326
-0.061494,0.04715,-0.0972,-0.10452,-0.041047,0.020294,0.067903,0.12039
-0.085298,0.019989,-0.088045,-0.10666,-0.04654,0.024262,0.10147,0.099031
-0.092317,-0.0096132,-0.062104,-0.099031,-0.047761,0.036469,0.11765,0.092622
-0.041047,-0.055695,-0.058442,-0.082246,-0.028229,0.02121,0.068208,0.077974
-0.03769,-0.074006,-0.018158,-0.090486,0.01297,-0.024262,-0.091096,0.0074769
-0.0083925,-0.075837,-0.017853,-0.04715,0.019379,-0.016022,-0.11032,-0.043793
0.032197,-0.12161,0.016632,-0.041657,0.023041,0.031281,0.074311,-0.060578
0.049287,-0.13413,0.026398,-0.023041,0.038911,0.016022,0.034333,-0.059358
0.043183,-0.091707,-0.039216,-0.047456,0.041352,0.0053407,-0.015717,-0.069429
0.057832,-0.095369,-0.034028,-0.07126,0.044404,0.0044251,-0.012055,-0.10208
0.0041199,-0.042267,-0.06302,-0.070649,0.036164,0.010529,-0.014191,-0.099031
-0.031281,-0.019684,-0.067292,-0.078279,0.022736,0.022126,0.018158,-0.051118
-0.07187,0.0016785,-0.085908,-0.089265,0.0050355,0.034638,0.027008,-0.030671
-0.075837,0.019684,-0.085298,-0.079194,-0.0032044,0.020294,0.010834,-0.015412
-0.052033,0.026398,-0.092622,-0.070954,-0.0022889,-0.00015259,-0.0022889,0.0041199
-0.034943,-0.0062562,-0.10941,-0.09781,0.0038148,-0.011749,0.0383,0.011749
-0.092317,0.041352,-0.11978,-0.12345,-0.017548,-0.0099184,0.042878,0.032807
-0.10788,0.064546,-0.10056,-0.096895,-0.033417,0.0010681,-0.0013733,0.079805
-0.063935,0.036164,-0.078889,-0.092317,-0.017548,0.024872,0.039216,0.14389
-0.022126,-0.034943,-0.046845,-0.08072,0.015106,0.026703,0.037079,0.16068
-0.026703,-0.058137,-0.035554,-0.074311,0.013275,0.020905,0.027924,0.12894
-0.014191,-0.087434,-0.023041,-0.06424,0.016938,-0.0077821,-0.0074769,0.04593
-0.0068666,-0.10758,0.0019837,-0.060883,0.0068666,0.031586,0.0041199,-0.019379
0.002594,-0.08835,-0.020905,-0.057221,0.025177,0.037385,0.062104,-0.061189
0.022126,-0.11398,0.00045777,-0.057221,0.015412,0.017243,0.18692,-0.051423
0.055695,-0.13016,0.0053407,0.016632,0.023041,-0.0068666,0.12406,-0.04715
0.042267,-0.0795,-0.026398,0.0019837,0.072175,-0.016938,0.095369,-0.07187
-0.029145,-0.039521,-0.083162,-0.10513,0.098421,-0.019379,-0.15976,-0.078889
-0.055085,-0.052949,-0.075837,-0.11276,0.038911,-0.034943,-0.62943,-0.030671
-0.045319,-0.033417,-0.092317,-0.081636,-0.019074,0.0022889,0.25956,0.1088
-0.078889,-0.012055,-0.098116,-0.055085,-0.0065614,0.0032044,0.30686,0.11398
-0.12253,0.025788,-0.10666,-0.12985,-0.016632,-0.056001,-0.74601,0.023651
-0.14542,0.095979,-0.11612,-0.15457,-0.033417,0.036774,-0.20706,0.062104
-0.11917,0.075532,-0.10422,-0.1265,-0.030365,0.094453,0.38499,0.073396
-0.08896,0.049287,-0.093538,-0.091707,-0.041047,0.084993,0.11612,0.06424
-0.0096132,0.035859,-0.066682,-0.079194,-0.038605,0.043488,0.14023,0.066072
0.026703,-0.022126,-0.051118,-0.079805,-0.022126,0.010834,0.08957,0.051423
0.10544,-0.11063,-0.023651,-0.05417,-0.0074769,0.0086976,0.063325,0.027619
0.12833,-0.2208,0.032197,-0.019684,0.012665,-0.010834,0.053254,0.040131
0.066377,-0.12497,-0.0080873,-0.036164,0.053254,-0.027619,-0.0013733,-0.060578
0.020905,-0.07248,-0.022431,-0.052338,0.04715,0.0044251,0.0065614,-0.08011
0.023346,-0.074006,-0.032197,-0.070344,0.038911,0.00076295,0.021515,-0.068208
-0.0028992,-0.034943,-0.04715,-0.032197,0.03769,0.00015259,0.009308,-0.092317
-0.02945,-0.036774,-0.032807,-0.057527,0.015106,0.023957,0.022126,-0.10788
-0.07187,-0.0062562,-0.02182,-0.083772,0.048371,0.0010681,-0.0044251,-0.10758
-0.052644,-0.062409,-0.058442,-0.053559,0.057527,-0.0016785,-0.014191,-0.053559
-0.069429,-0.060273,-0.082551,-0.12284,0.06302,0.015412,0.010834,0.0080873
-0.10391,0.033722,-0.11521,-0.12253,0.015717,0.013275,0.03006,0.043793
-0.10575,0.03769,-0.11124,-0.08896,-0.039216,0.012665,0.0795,0.11917
-0.082246,0.034333,-0.11765,-0.094759,-0.043488,0.030365,0.063935,0.11673
-0.052033,-0.0096132,-0.0972,-0.10117,-0.035859,0.029145,0.048371,0.076448
-0.049897,0.0071717,-0.11887,-0.09781,-0.049897,0.019989,0.017243,0.083772
-0.031281,0.013886,-0.090791,-0.056306,-0.019074,0.0013733,-0.0035096,0.070344
-0.033722,-0.009308,0.0074769,-0.065461,0.040436,-0.050202,-0.087434,0.048371
-0.0206,-0.0074769,-0.034028,-0.11124,0.02884,-0.01297,-0.0795,0.047456
-0.0096132,-0.046235,-0.0096132,-0.087434,-0.0071717,0.055085,0.1503,0.046235
0.0032044,-0.074006,-0.0080873,-0.059052,0.0032044,0.021515,0.12711,-0.00015259
0.026703,-0.11978,0.018769,-0.029145,0.011444,0.018769,0.11276,-0.014191
0.027314,-0.14786,0.009308,-0.020294,0.033722,0.018158,0.037995,-0.052644
0.0056458,-0.092317,-0.059052,-0.060883,0.061189,0.0090028,-0.36027,-0.095674
0.027924,-0.090181,-0.022736,-0.036469,0.0383,0.028534,-0.10452,-0.07126
0.027314,-0.090791,-0.046845,-0.040436,0.023041,0.016022,0.085298,-0.075227
-0.019684,-0.019379,-0.10727,-0.10758,0.027008,0.0086976,0.019989,-0.083772
-0.081636,0.042267,-0.12497,-0.12161,-0.00076295,0.0099184,0.073701,-0.02945
-0.11826,0.065461,-0.11521,-0.11337,-0.013581,-0.0068666,0.046235,0.045014
-0.090181,0.04715,-0.08957,-0.062409,-0.018769,-0.041962,-0.070039,0.081331
-0.064851,0.039826,-0.094148,-0.11368,-0.0080873,-0.09781,-0.10391,0.075532
-0.07187,0.047761,-0.099336,-0.1033,-0.010834,-0.013275,0.028229,0.070649
-0.06363,0.036164,-0.083162,-0.095674,-0.0065614,0.053254,0.093843,0.05539
-0.060883,0.012665,-0.052949,-0.10971,0.00045777,0.043183,0.047761,0.043793
-0.00045777,-0.052949,-0.030365,-0.073701,-0.026398,0.041657,0.027008,0.02182
0.044404,-0.10758,-0.019074,-0.056306,-0.024262,0.031586,0.0383,0.0077821
0.045014,-0.14206,-0.0099184,-0.069734,0.010529,0.016632,0.044404,0.016022
0.066682,-0.1622,0.027924,-0.024567,0.045014,0.020905,0.053559,0.0019837
0.068208,-0.15244,0.0035096,-0.034638,0.053559,0.02945,0.031281,-0.018769
0.017853,-0.099641,-0.029755,-0.060883,0.05417,0.010834,0.023651,-0.038605
-0.034943,-0.075532,-0.034028,-0.065766,0.045014,-0.0035096,-0.056916,-0.024567
-0.038605,-0.047761,-0.0383,-0.059052,0.027314,0.025483,-0.079194,-0.0206
-0.049287,-0.019379,-0.061189,-0.044404,0.022736,0.042573,0.034333,-0.0032044
-0.045624,0.0083925,-0.12497,-0.08072,0.027619,0.0062562,0.01297,-0.0074769
-0.067292,0.07248,-0.1146,-0.1033,0.029755,-0.020294,-0.020294,-0.018769
-0.10452,0.050507,-0.12345,-0.077363,-0.0074769,-0.0077821,0.0090028,0.023346
-0.099641,0.015106,-0.11917,-0.14908,-0.0383,0.0038148,0.023651,0.053254
-0.10178,0.034333,-0.089265,-0.14267,-0.024262,0.023957,0.11856,0.078279
-0.090791,0.035859,-0.056306,-0.077058,-0.024567,0.048981,0.12894,0.072175
-0.059968,0.034333,-0.05417,-0.05539,-0.011444,0.047456,0.086213,0.068513
-0.035859,-0.028229,-0.024567,-0.071565,0.0013733,-0.0056458,-0.04654,0.043488
-0.002594,-0.089876,-0.0083925,-0.06363,0.0096132,-0.038911,-0.35447,-0.018158
0.0071717,-0.098116,-0.012665,-0.057527,0.0013733,0.018463,-0.067292,-0.00015259
0.023651,-0.087739,-0.031891,-0.052949,-0.002594,0.031281,0.16464,0.033112
0.023957,-0.11185,-0.014801,-0.057527,0.025177,-0.014191,0.057527,0.046235
0.047761,-0.11795,-0.0206,-0.047456,0.059358,-0.037995,0.02121,0.013581
0.041962,-0.099641,-0.024567,-0.044099,0.068208,-0.035859,0.030976,-0.010834
-0.0053407,-0.094148,-0.039826,-0.066377,0.0383,0.0062562,-0.081331,-0.014496
-0.030671,-0.038605,-0.06302,-0.080415,0.03006,0.028534,-0.037385,-0.014191
-0.03769,-0.013886,-0.07126,-0.080415,0.027619,0.027314,0.08835,0.0071717
-0.089265,0.037385,-0.12161,-0.09659,0.011444,0.032197,0.049287,-0.035554
-0.081636,0.034028,-0.11734,-0.11673,-0.010224,0.025483,0.037995,-0.037079
-0.11765,0.049592,-0.11978,-0.12192,-0.029755,0.036774,0.051118,0.0028992
-0.075837,0.043183,-0.11948,-0.10758,-0.034333,0.027008,0.031891,0.042267
-0.049287,0.0062562,-0.075837,-0.077668,-0.030671,-0.0056458,0.010529,0.066072
-0.042573,-0.0086976,-0.04654,-0.063325,-0.016938,-0.032197,-0.0041199,0.040131
-0.045014,0.0065614,-0.056916,-0.10239,-0.012055,-0.020294,0.0099184,0.0074769
-0.031891,-0.024567,-0.046845,-0.092317,-0.028534,0.018463,0.024262,0.010834
0.021515,-0.056916,-0.023041,-0.06363,-0.027008,0.035554,0.025177,0.050507
0.047456,-0.077974,-0.0077821,-0.055085,-0.0022889,0.029145,0.019074,0.014801
0.074006,-0.099947,-0.016327,-0.031586,0.033417,0.012665,0.0019837,-0.031281
0.071565,-0.12039,-0.013886,-0.028229,0.06363,-0.0019837,-0.040742,-0.034943
0.066682,-0.13565,-0.027924,-0.051423,0.075837,0.01297,-0.030671,0.023651
0.038911,-0.14145,-0.023041,-0.04654,0.053864,0.027924,0.059052,0.02182
0.029145,-0.14023,-0.03769,-0.060273,0.047761,-0.0086976,-0.024262,-0.020294
-0.027619,-0.059663,-0.061799,-0.069734,0.042267,-0.021515,-0.086824,-0.034943
-0.10513,0.030671,-0.073091,-0.0972,0.012055,-0.025483,0.00076295,-0.036774
-0.14755,0.048066,-0.095369,-0.08957,-0.0090028,0.0086976,0.059663,-0.025483
-0.15244,0.08957,-0.12467,-0.090791,-0.019684,0.031281,0.09659,-0.033417
-0.1323,0.089876,-0.09659,-0.11521,-0.035554,0.02945,0.08072,0.012055
-0.11948,0.10178,-0.096284,-0.11093,-0.034638,0.023346,0.0383,0.0383
-0.058747,0.058442,-0.095369,-0.11704,-0.0022889,-0.012055,-0.052949,0.050507
-0.030671,0.009308,-0.070649,-0.10269,-0.015106,-0.0032044,-0.076753,0.088045
-0.030365,-0.075837,-0.060273,-0.089265,-0.02884,0.016327,-0.037079,0.094759
0.0086976,-0.098726,-0.034028,-0.061799,-0.014191,0.016938,0.02182,0.095979
0.0071717,-0.091402,-0.019074,-0.051423,0.016938,0.01297,0.085908,0.070649
0.022126,-0.11734,0.00076295,-0.047761,0.032807,0.011139,0.019684,0.015717
0.026703,-0.12863,-0.0068666,-0.078584,0.031891,0.029145,0.0016785,-0.025483
0.054475,-0.15671,0.062104,0.026703,0.034028,0.017243,-0.0074769,-0.061189
0.026703,-0.08072,-0.044404,-0.015106,0.082246,0.0013733,-0.019379,-0.058137
-0.0028992,-0.064851,-0.050813,-0.10666,0.12772,-0.012055,-0.014801,-0.093233
-0.0206,-0.005951,-0.084688,-0.084382,0.033112,0.026398,0.031281,-0.066682
-0.022431,-0.012665,-0.084382,-0.10452,-0.0090028,0.028229,0.16709,-0.051423
-0.037385,-0.005951,-0.094148,-0.08835,-0.0206,0.022431,0.18784,-0.061189
-0.051118,0.033112,-0.11032,-0.10117,-0.034638,0.0099184,0.1677,-0.04593
-0.039521,0.027924,-0.084688,-0.11368,-0.022431,-0.022126,-0.17563,-0.072175
-0.028229,-0.026093,-0.084382,-0.1088,-0.021515,-0.034333,-0.86259,-0.02884
-0.0086976,-0.02182,-0.10361,-0.098726,-0.031586,0.0080873,-0.024262,0.10788
-0.040742,0.0080873,-0.089265,-0.069123,-0.02945,0.013886,0.23209,0.12711
-0.02884,-0.036469,-0.079194,-0.062409,-0.0035096,-0.0050355,0.067292,0.10361
-0.0019837,-0.023957,-0.023957,-0.041047,0.0099184,-0.0096132,0.12894,0.16739
-0.045014,0.0053407,-0.043793,-0.064851,0.023346,0.0053407,0.067292,0.097505
-0.052949,-0.036469,-0.022431,-0.068818,0.026093,0.028229,0.045319,0.049897
-0.034333,-0.082856,-0.00045777,-0.074922,0.0077821,0.05539,0.059663,0.048066
-0.039216,-0.084688,-0.0038148,0.011444,0.014801,0.041657,0.035248,-0.022431
0.0035096,-0.11551,-0.012665,-0.074311,0.021515,0.042573,0.040131,-0.028229
-0.0028992,-0.095979,-0.023651,-0.099641,0.049287,0.0050355,0.044404,-0.049592
-0.023346,-0.074922,-0.044709,-0.011139,0.016938,-0.01297,0.04593,-0.091096
-0.042878,-0.044709,-0.066072,-0.02884,0.027314,0.038911,0.035859,-0.044709
-0.039521,-0.036774,-0.076448,-0.11734,0.081331,0.064546,0.067292,-0.024872
-0.055695,0.01236,-0.08957,-0.14847,0.030365,0.02121,0.03006,-0.033417
-0.07126,0.047761,-0.095979,-0.095369,0.0032044,-0.033417,-0.025483,-0.016327
-0.068818,0.037995,-0.11521,-0.12589,-0.012055,-0.0077821,-0.0071717,0.039521
-0.04593,0.019989,-0.11154,-0.11032,-0.041047,0.011139,-0.0068666,0.087434
-0.061189,0.024567,-0.085908,-0.077058,-0.054475,-0.0013733,0.002594,0.087739
-0.081025,0.026703,-0.086824,-0.061799,-0.020294,-0.090486,0.022736,0.075837
-0.031891,0.0013733,-0.060883,-0.060578,0.01297,-0.0013733,0.023651,0.11612
0.010834,-0.034943,-0.041047,-0.069734,0.022126,0.023957,0.0077821,0.098726
0.0050355,-0.082856,-0.02182,-0.073701,0.010529,-0.018158,-0.074006,0.0071717
0.034028,-0.092622,-0.0056458,-0.063325,-0.0071717,0.025483,-0.073701,-0.032807
0.030365,-0.10941,-0.018158,-0.058442,-0.0068666,0.065156,0.087434,-0.03769
0.024872,-0.10269,-0.0083925,-0.036469,0.009308,0.031586,0.039216,-0.019074
0.018158,-0.090791,0.0053407,-0.032197,0.039826,0.01297,-0.015412,-0.052644
-0.0019837,-0.068818,-0.022431,-0.02121,0.055695,0.010224,-0.023041,-0.11917
-0.027314,-0.058747,-0.058442,-0.066987,0.046845,0.0090028,0.010834,-0.08896
-0.039521,-0.024567,-0.074006,-0.075532,0.036164,0.005951,0.091707,-0.052644
-0.054475,-0.0096132,-0.086519,-0.10147,0.015717,0.00045777,0.12192,-0.039521
-0.051423,-0.013581,-0.075227,-0.089265,0.016022,0.0080873,0.12161,-0.0071717
-0.036469,0.011444,-0.1146,-0.10788,0.0096132,-0.011139,-0.12558,0.024872
-0.051118,0.048676,-0.11276,-0.12924,0.0010681,-0.027924,-0.48478,-0.00076295
-0.073701,0.052033,-0.10361,-0.13138,-0.032502,0.014496,-0.022431,0.056611
-0.058137,0.0022889,-0.088045,-0.10575,-0.051728,0.041657,0.15061,0.1146
-0.034333,-0.02884,-0.05478,-0.073091,-0.04593,0.023041,0.069123,0.10758
-0.054475,-0.041657,-0.052644,-0.059663,-0.019684,0.010224,0.063935,0.082551
-0.045624,-0.049897,-0.05417,-0.085908,-0.010224,0.026093,0.033417,0.065461
-0.0053407,-0.066377,-0.016327,-0.058442,-0.0086976,0.022431,0.066377,0.057832
0.013581,-0.12589,0.051728,0.013581,0.017853,-0.0038148,0.024262,0.0090028
0.0053407,-0.09781,0.00015259,-0.035248,0.059968,0.0062562,-0.0068666,-0.049287
0.011749,-0.10025,-0.036774,-0.07126,0.063935,0.026398,0.15091,-0.043488
0.00076295,-0.075532,-0.044099,-0.085603,0.042878,0.009308,0.017853,-0.018158
-0.010834,-0.073396,-0.033722,-0.058747,0.053864,-0.012665,-0.3154,-0.0096132
-0.022736,-0.068818,-0.037995,-0.044404,0.039826,0.027008,-0.0013733,-0.0096132
-0.024567,-0.058442,-0.051118,-0.022431,0.037385,0.0068666,0.094759,-0.011139
-0.037079,-0.01236,-0.09659,-0.088655,0.031586,-0.0053407,0.016938,-0.0035096
-0.056001,0.039216,-0.12741,-0.13748,0.010529,0.0041199,0.070039,0.019379
-0.077668,0.056306,-0.11673,-0.13779,-0.015412,0.015412,0.084688,0.057221
-0.091096,0.066072,-0.11612,-0.11398,-0.022126,0.0047303,0.00076295,0.040131
-0.074617,0.050507,-0.10727,-0.1088,-0.047761,0.02945,-0.037385,0.074311
-0.061189,0.022126,-0.087129,-0.10758,-0.05478,0.018463,0.084688,0.095674
-0.04654,0.0062562,-0.05417,-0.085603,-0.032502,-0.0068666,0.023957,0.048981
-0.019074,-0.012055,-0.051118,-0.07248,-0.02121,0.0068666,0.014191,0.027924
0.00045777,-0.016327,-0.037995,-0.06363,-0.016327,0.023346,0.038911,0.025177
0.024262,-0.078889,-0.0077821,-0.044709,0.0032044,0.014191,0.019074,-0.016327
0.023651,-0.13474,-0.0065614,-0.026703,0.019989,0.013886,0.024262,-0.045319
0.036774,-0.14054,-0.00045777,-0.040436,0.040131,0.036774,0.0080873,-0.034943
0.057221,-0.13199,-0.013886,-0.052949,0.06424,0.013886,0.005951,-0.024872
0.079194,-0.11795,-0.012665,-0.030671,0.05417,-0.0077821,0.011139,-0.073701
0.062409,-0.078584,-0.029755,-0.055695,0.023041,0.00076295,0.005951,-0.10239
-0.04654,-0.015717,-0.075227,-0.13291,0.031281,-0.027008,-0.0080873,-0.10727
-0.08011,0.00045777,-0.088045,-0.084993,0.020905,-0.024872,-0.10849,-0.079194
-0.11643,0.040131,-0.10666,-0.093843,0.017243,-0.02182,-0.12161,0.00076295
-0.13596,0.062409,-0.121,-0.10513,0.0071717,0.005951,0.041962,0.096284
-0.14237,0.056611,-0.1149,-0.11337,-0.017548,0.032197,0.08835,0.15091
-0.10025,-0.016632,-0.06424,-0.074617,-0.027314,0.02884,0.096284,0.17288
-0.075532,0.012055,-0.095369,-0.05417,-0.018463,0.022126,0.036774,0.07248
-0.048981,-0.019684,-0.09659,-0.074617,-0.0044251,-0.00076295,-0.015717,0.023346
-0.024872,-0.002594,-0.049287,-0.052644,-0.022431,-0.0080873,-0.0083925,-0.0071717
-0.020905,-0.010834,-0.02884,-0.05539,-0.0083925,-0.0080873,-0.014496,-0.057221
0.0028992,-0.06424,-0.026703,-0.12589,0.00045777,0.010834,0.014191,-0.032807
0.079805,-0.16464,0.0083925,-0.17166,-0.0047303,0.034638,0.0074769,0.025788
0.1149,-0.13474,-0.0074769,-0.090791,0.031281,0.025177,-0.032807,0.050202
0.065461,-0.092317,-0.014191,0.0065614,0.07126,0.021515,-0.0080873,0.019379
0.025788,-0.091402,-0.024262,-0.034943,0.059358,0.034028,0.055085,0.0016785
0.019989,-0.092927,-0.030976,-0.034638,0.025483,0.02884,0.03769,-0.019379
-0.030976,-0.058747,-0.051118,-0.042573,0.02884,0.023346,0.0096132,-0.065156
-0.072786,-0.028229,-0.072175,-0.068208,0.035554,-0.015106,-0.018463,-0.053254
-0.075227,-0.0013733,-0.095369,-0.075837,0.026703,-0.023957,-0.038911,-0.0065614
-0.068818,0.048066,-0.10147,-0.096895,-0.0035096,0.0013733,-0.0206,0.0016785
-0.077668,0.014191,-0.082246,-0.10269,-0.017548,-0.0035096,0.00045777,-0.0041199
-0.08011,0.016327,-0.096895,-0.091707,-0.015106,-0.015412,0.027924,0.024872
-0.056916,0.048066,-0.11154,-0.11765,-0.020294,-0.0096132,0.0041199,0.052949
-0.06302,0.054475,-0.094148,-0.10269,-0.020294,-0.012665,0.019989,0.069123
-0.091402,0.056001,-0.076448,-0.090791,-0.0065614,-0.0053407,0.15274,0.092927
-0.040436,-0.0056458,-0.051118,-0.082246,-0.012665,0.015106,0.20157,0.097505
-0.010529,-0.046235,-0.023957,-0.052949,-0.017548,0.033112,0.26566,0.061494
-0.0083925,-0.078889,-0.010834,-0.069123,0.0056458,-0.015717,-0.32364,0.0090028
-0.030671,-0.11246,0.0022889,-0.056916,0.011749,-0.015106,-0.73594,-0.0019837
0.055695,-0.17014,-0.013581,-0.039521,0.0080873,0.052949,0.18235,-0.017548
0.094148,-0.16861,-0.032807,-0.041352,0.02884,0.056306,0.14328,-0.095064
0.042267,-0.11337,-0.035859,-0.05539,0.041962,0.073396,0.17777,-0.11948
0.069429,-0.083467,-0.029755,-0.051728,0.030976,0.064851,0.31235,-0.049897
0.014191,-0.062715,-0.0077821,-0.047456,0.050507,0.0065614,0.15457,-0.078279
-0.027008,-0.036469,-0.042573,-0.02884,0.047456,-0.012055,0.063935,-0.13016
-0.053864,0.024567,-0.11765,-0.081636,0.041047,-0.070039,-0.72648,-0.051728
-0.10788,0.10819,-0.13993,-0.1384,0.037079,-0.043488,-0.41276,0.047761
-0.15305,0.11429,-0.12924,-0.15183,-0.023041,0.021515,0.31754,0.1265
-0.10208,0.057527,-0.12894,-0.11124,-0.043793,0.025483,0.16007,0.12985
-0.06302,0.0077821,-0.088045,-0.052644,-0.017548,0.010529,0.13535,0.10483
-0.085908,-0.013886,-0.06302,-0.0972,0.00045777,0.0099184,0.074311,0.11093
-0.10513,-0.020905,-0.040742,-0.083772,-0.0013733,-0.011444,0.0086976,0.080415
-0.074922,-0.057832,-0.045014,-0.093233,-0.018158,-0.018158,-0.039216,0.059358
-0.027314,-0.08957,-0.043183,-0.10239,-0.034333,0.035248,0.0090028,0.090791
0.029755,-0.092927,-0.021515,-0.069429,-0.029755,0.053559,0.13687,0.039826
0.041962,-0.13291,-0.0080873,-0.057527,-0.012665,0.04654,0.068208,-0.035859
0.043183,-0.08835,-0.0062562,-0.027008,0.02121,0.030671,0.033112,-0.038911
0.061189,-0.075837,-0.00076295,-0.014191,0.057221,0.0065614,0.036774,-0.042573
0.042267,-0.0795,-0.017853,-0.04715,0.085908,0.0044251,0.019074,-0.085908
0.02945,-0.10239,-0.031891,-0.052644,0.052033,0.023957,-0.011139,-0.12314
-0.034638,-0.050507,-0.093538,-0.082551,0.034943,0.036164,0.042878,-0.11826
-0.0383,-0.036164,-0.084993,-0.0795,0.025483,-0.015717,0.052338,-0.057221
-0.059358,0.019074,-0.086213,-0.068513,0.0206,-0.10483,0.027924,0.037995
-0.067903,0.085298,-0.12436,-0.081636,-0.010224,-0.024262,0.0032044,0.068208
-0.052949,0.054475,-0.092927,-0.103,-0.0068666,-0.034333,-0.30747,0.03006
-0.061189,0.023651,-0.077058,-0.15702,-0.025788,0.0028992,-0.11063,0.013581
-0.069429,0.037385,-0.11429,-0.13474,-0.048676,0.044099,0.23972,0.032197
-0.06363,0.056001,-0.10758,-0.10178,-0.033417,0.014191,0.086213,0.031586
-0.022126,-0.0206,-0.030365,0.0206,-0.022126,0.027314,-0.23911,0.030365
-0.024872,-0.10819,-0.016022,-0.1146,-0.0096132,0.016327,-0.25254,0.043488
-0.018769,-0.10422,-0.034333,-0.068818,0.015412,-0.0013733,0.14542,0.046845
-0.015412,-0.081941,-0.0090028,-0.047456,-0.0065614,0.03006,0.11398,0.061494
-0.0056458,-0.097505,-0.014496,-0.035248,0.011749,0.040436,0.075532,0.060273
0.010834,-0.12467,0.024262,-0.033112,0.053559,0.019989,0.088045,0.07248
0.023346,-0.11032,-0.026093,-0.051423,0.074006,0.011444,0.073396,0.083772
0.0041199,-0.08072,-0.029145,-0.075227,0.061189,0.0047303,0.016022,0.016022
-0.032502,-0.053864,-0.052949,-0.061799,0.031586,0.023957,-0.0013733,-0.028229
-0.044709,-0.026703,-0.070039,-0.086519,0.017243,0.049592,0.026093,-0.031586
-0.041962,-0.00076295,-0.10513,-0.0972,0.0086976,0.046845,0.029755,-0.043793
-0.056916,0.037079,-0.10819,-0.10636,-0.0096132,0.023346,0.031281,-0.056001
-0.081025,0.048371,-0.09659,-0.10269,-0.0068666,0.010224,0.032807,-0.035248
-0.059052,0.034333,-0.11307,-0.094453,-0.010529,-0.0010681,0.027619,0.0071717
-0.02121,0.03006,-0.12161,-0.10178,-0.020294,-0.0038148,-0.015717,0.044099
-0.016632,0.040742,-0.095369,-0.103,-0.020905,-0.0068666,-0.030976,0.011444
-0.050813,0.059358,-0.08011,-0.08896,-0.026398,-0.0086976,-0.035248,-0.0071717
-0.035248,-0.0019837,-0.051728,-0.076753,-0.019379,-0.016022,-0.0050355,0.057832
0.011139,-0.078584,-0.0383,-0.07126,-0.010834,-0.01297,0.02182,0.057832
0.015106,-0.1265,0.00045777,-0.058442,-0.0010681,0.005951,0.061189,0.0065614
0.035859,-0.15671,0.037995,-0.015106,0.023346,-0.0016785,-0.012665,-0.02884
0.02121,-0.11246,0.0080873,-0.048676,0.048371,-0.0074769,-0.11032,-0.060578
0.013581,-0.10971,-0.041962,-0.05417,0.048066,0.018463,0.051728,-0.064546
-0.0083925,-0.093843,-0.025788,-0.041352,0.025483,0.041352,0.086213,-0.04654
0.0013733,-0.08835,-0.024262,-0.045624,0.017243,0.06363,0.10391,-0.041657
-0.051728,-0.03769,-0.058747,-0.077363,0.02945,0.048981,0.037995,-0.065156
-0.07126,-0.024567,-0.082246,-0.089265,0.036774,-0.00076295,-0.15366,-0.091096
-0.090181,0.02945,-0.08835,-0.091402,0.033722,-0.045319,-0.1384,-0.044404
-0.074922,0.026398,-0.095369,-0.09659,0.0035096,-0.020294,0.031281,0.051118
-0.062104,0.044404,-0.10849,-0.099336,-0.015106,0.01297,0.034943,0.13901
-0.037079,0.047761,-0.11521,-0.1146,-0.024567,-0.0016785,0.027314,0.14878
-0.041047,-0.0086976,-0.099031,-0.11765,-0.035554,-0.0032044,0.020294,0.14054
-0.0080873,-0.052644,-0.08835,-0.099336,-0.0383,0.0019837,0.027619,0.14084
-0.018463,-0.024262,-0.06424,-0.082246,-0.023651,-0.0077821,-0.0056458,0.084077
-0.026398,-0.0099184,-0.042267,-0.08957,-0.023651,0.0090028,0.0035096,0.022126
-0.049287,-0.027619,-0.022126,-0.071565,-0.009308,0.018769,0.061189,0.018158
-0.029755,-0.062104,-0.018769,-0.049287,0.0028992,0.01297,0.020905,-0.010224
-0.023346,-0.086519,-0.026398,-0.055085,0.015412,0.0090028,0.012055,-0.028229
-0.014496,-0.081331,-0.023957,-0.04654,0.036164,0.0083925,0.0041199,-0.031586
-0.0013733,-0.084077,-0.023041,-0.028229,0.049897,0.0013733,-0.0044251,-0.06363
-0.015106,-0.10422,-0.0053407,-0.025177,0.056306,0.0080873,0.011139,-0.050507
0.022736,-0.095369,-0.049897,-0.056916,0.061494,0.009308,-0.00076295,-0.066072
0.011139,-0.067903,-0.034028,-0.060578,0.052949,-0.011444,-0.00045777,-0.087739
-0.039216,-0.027924,-0.060578,-0.061799,0.04715,-0.035554,0.0053407,-0.081025
-0.071565,0.043488,-0.12497,-0.0795,0.02182,-0.019684,0.011139,-0.065156
-0.070649,0.049592,-0.11734,-0.11337,0.0080873,0.027008,0.035859,-0.0062562
-0.060883,0.026398,-0.10941,-0.13931,-0.0090028,0.02884,0.043183,0.047761
-0.069429,0.048066,-0.10605,-0.15122,-0.040436,-0.00076295,0.014191,0.060578
-0.06302,0.042267,-0.090181,-0.12467,-0.034333,-0.019684,-0.014801,0.10239
-0.055085,0.031586,-0.080415,-0.10697,-0.055695,-0.013275,-0.011139,0.12039
-0.030365,-0.022736,-0.048066,-0.069429,-0.060578,0.025483,0.019074,0.081331
-0.01297,-0.04593,-0.04593,-0.060273,-0.030671,0.02884,0.014191,0.073396
0.015412,-0.072786,-0.015412,-0.056916,-0.0035096,0.017243,0.0053407,0.06363
0.02945,-0.10056,-0.016327,-0.048371,0.0099184,0.032807,0.010529,0.016632
0.057221,-0.13169,-0.00076295,-0.034638,0.018158,0.052949,0.016022,-0.052644
0.025788,-0.10941,-0.0062562,-0.036469,0.057832,0.019989,-0.011139,-0.087129
0.023346,-0.11215,-0.026398,-0.038605,0.05417,0.0041199,0.021515,-0.052949
0.034028,-0.13291,0.010529,-0.0206,0.061189,-0.0080873,0.015412,-0.012055
0.010529,-0.095674,-0.050202,-0.056306,0.08011,-0.025788,-0.038605,-0.018158
-0.031586,-0.017548,-0.084382,-0.077058,0.054475,-0.0056458,-0.0028992,-0.022431
-0.053254,-0.018463,-0.088655,-0.056306,0.015717,0.019989,0.052033,0.011139
-0.07126,0.0053407,-0.103,-0.13931,-0.012055,0.014191,0.037995,0.030365
-0.10452,0.076448,-0.11215,-0.24033,-0.020905,-0.0080873,-0.011139,-0.0090028
-0.0972,0.075532,-0.12314,-0.14755,-0.035554,0.0047303,-0.027619,-0.0062562
-0.085298,0.039521,-0.091402,-0.076753,-0.039826,0.032197,-0.016938,0.033417
-0.077974,0.025788,-0.10147,-0.051728,-0.02945,0.023346,0.051423,0.081331
-0.065766,0.014191,-0.084688,-0.037385,-0.019074,0.005951,0.051728,0.1146
-0.057832,-0.02182,-0.062409,-0.052338,-0.015106,0.00076295,0.02121,0.0795
-0.046845,-0.038911,0.0074769,-0.06363,0.00076295,-0.0032044,0.015412,0.041047
-0.059968,-0.073396,-0.0044251,-0.075837,0.00076295,0.0099184,-0.0032044,0.023346
-0.046845,-0.11673,0.034638,-0.024872,0.0071717,0.031586,0.056611,0.023346
0.014801,-0.12497,-0.00076295,-0.032502,0.031891,0.037079,0.068208,-0.0083925
0.028229,-0.10941,-0.033722,-0.038605,0.065156,0.0053407,0.0077821,-0.043488
0.030365,-0.10971,-0.035554,-0.041657,0.046845,-0.016327,-0.056611,-0.062715
0.05539,-0.11032,-0.040742,-0.051118,0.045624,0.018158,-0.086824,-0.044709
0.022126,-0.069734,-0.069429,-0.070649,0.046235,0.036469,0.041047,-0.030671
-0.022126,-0.026398,-0.075837,-0.084688,0.02884,0.005951,0.035248,-0.00076295
-0.039216,0.019989,-0.10452,-0.087739,0.023041,0.0065614,-0.0083925,0.017243
-0.024872,0.03006,-0.10758,-0.11887,0.010529,0.019379,-0.0062562,0.023957
-0.042878,0.045624,-0.1088,-0.12558,-0.015412,-0.0013733,-0.02121,0.0065614
-0.063935,0.044099,-0.1091,-0.10727,-0.0383,-0.095979,-0.041047,0.0071717
-0.070039,0.035859,-0.092927,-0.10269,-0.057832,-0.0068666,0.0056458,-0.002594
-0.074922,0.048066,-0.086824,-0.10575,-0.04715,0.051118,0.033112,0.017853
-0.053559,0.0077821,-0.053864,-0.10513,-0.025788,0.013886,0.0032044,0.034333
-0.02884,-0.036469,-0.035859,-0.061494,-0.023651,-0.0041199,0.049287,0.030976
-0.012665,-0.053559,-0.027619,-0.053254,-0.0056458,0.00045777,0.02945,0.02182
0.033417,-0.093843,-0.03006,-0.057527,0.027924,0.035554,0.032197,0.0035096
0.052338,-0.12345,-0.0096132,-0.040436,0.023957,0.042573,0.11673,-0.048676
0.032197,-0.14359,0.013581,-0.026093,0.040131,0.032807,0.10636,-0.078279
0.070344,-0.13901,-0.016327,-0.037079,0.066072,0.0065614,0.039216,-0.05478
0.025788,-0.12833,-0.019074,-0.044099,0.06302,-0.048981,-0.26261,-0.030976
-0.051118,-0.099336,-0.022736,-0.033722,0.050507,-0.051728,-0.4448,-0.053864
-0.082856,0.0047303,-0.042573,-0.0972,0.040131,0.01297,0.072786,0.018158
-0.058137,-0.030671,-0.10666,-0.099947,0.032807,0.016632,0.16648,0.087739
-0.086824,0.034638,-0.11826,-0.076448,-0.00015259,0.044404,0.13687,0.074617
-0.10208,0.069123,-0.12863,-0.19425,-0.0010681,0.04654,0.11704,0.092622
-0.11429,0.07248,-0.11887,-0.10849,-0.019684,0.037385,0.19852,0.12894
-0.084993,0.049592,-0.067903,-0.048981,-0.059052,0.037995,0.24491,0.12009
-0.041352,0.016022,-0.077058,-0.12253,-0.044404,0.0038148,0.21592,0.037995
-0.064546,0.051118,-0.099031,-0.087434,-0.014801,-0.027619,0.15274,-0.016632
-0.056916,0.014191,-0.058137,-0.07126,0.002594,-0.033722,-0.58488,-0.040742
-0.032502,-0.038911,-0.047761,-0.091402,0.0056458,0.02945,-0.27146,0.0074769
-0.002594,-0.08011,-0.027008,-0.075837,-0.012055,0.024567,0.12222,0.011444
0.020905,-0.11795,0.0032044,-0.055085,-0.0050355,-0.005951,-0.31815,-0.048371
0.05539,-0.17227,0.027924,-0.033112,0.02121,0.014801,0.17716,-0.025788
0.067903,-0.19242,-0.0062562,-0.040742,0.049897,0.0099184,0.27787,-0.024567
0.042878,-0.098116,-0.033112,-0.052949,0.06302,-0.0080873,0.19883,-0.055085
0.024262,-0.064546,-0.046845,-0.04715,0.059052,-0.0056458,0.1915,-0.075227
0.0041199,-0.05478,-0.063935,-0.064851,0.048371,-0.027924,-0.56077,-0.10178
0.0041199,-0.03006,-0.065766,-0.085603,0.039216,-0.023346,-0.55985,-0.063935
-0.014191,-0.023346,-0.084077,-0.084382,0.016938,0.050507,0.28885,0.016022
-0.062104,0.025177,-0.1091,-0.08957,-0.010834,0.065156,0.19913,0.049287
-0.10941,0.092012,-0.11154,-0.11398,-0.020294,0.030671,0.16342,0.067292
-0.10056,0.06363,-0.10666,-0.10361,-0.031281,0.0019837,0.14206,0.045624
-0.092927,0.051423,-0.10208,-0.11093,-0.017548,-0.059358,-0.06363,0.02121
-0.074006,0.034333,-0.095369,-0.099336,-0.024262,-0.025483,-0.10605,0.029145
-0.068208,0.0047303,-0.061189,-0.093233,-0.032197,0.02121,-0.061799,0.045014
-0.064546,-0.024567,-0.036164,-0.089265,-0.018463,0.027008,0.047456,0.078279
-0.028229,-0.077363,-0.032502,-0.074617,-0.017548,0.026398,0.11002,0.077363
-0.0062562,-0.096895,-0.013581,-0.063325,-0.013275,0.028229,0.077363,0.072786
0.024872,-0.11795,0.0032044,-0.046845,0.019684,0.040131,0.067597,0.065461
0.028229,-0.064546,-0.0062562,-0.027314,0.034943,0.02884,0.057221,0.009308
0.040436,-0.084077,-0.0080873,-0.034333,0.052338,-0.0032044,0.0080873,-0.074922
0.043488,-0.1088,-0.025788,-0.058442,0.063325,0.00045777,0.010834,-0.10727
0.009308,-0.1445,-0.043183,-0.058137,0.041657,0.022126,0.018158,-0.077974
-0.0083925,-0.12497,-0.077058,-0.084688,0.025483,0.041657,0.034943,-0.023346
-0.057832,-0.013581,-0.077363,-0.077058,0.011444,0.028534,0.053559,0.012665
-0.051118,0.019379,-0.12711,-0.079805,0.00045777,0.0032044,0.0056458,0.034028
-0.053559,0.011444,-0.076143,-0.08072,0.019379,-0.013275,-0.0056458,0.06363
-0.091096,0.047761,-0.068208,-0.075532,0.036164,-0.0383,0.019074,0.040436
-0.11032,0.066682,-0.10056,-0.073091,0.00076295,-0.026398,0.037079,0.033112
-0.12222,0.065766,-0.10513,-0.082551,-0.02884,-0.0010681,0.017548,0.089265
-0.10544,0.083162,-0.0972,-0.12161,-0.015106,0.013886,0.021515,0.121
-0.069123,-0.002594,-0.048371,-0.12039,-0.024872,0.052949,0.041047,0.12009
-0.030365,-0.041962,-0.051118,-0.090791,-0.035554,0.06302,0.04715,0.089876
-0.0086976,-0.067903,-0.033722,-0.093843,-0.017243,0.024567,-0.0083925,0.024262
0.0080873,-0.081941,-0.0044251,-0.059663,0.0074769,-0.0035096,0.0065614,-0.0050355
0.031281,-0.10178,-0.011749,-0.051118,0.019379,-0.0056458,-0.016938,-0.030976
0.039216,-0.097505,-0.0099184,-0.040436,0.031281,-0.0056458,-0.04593,-0.054475
0.017548,-0.090486,-0.02182,-0.057221,0.037995,0.03006,0.0077821,-0.090181
0.059968,-0.11337,-0.032502,-0.047456,0.039826,0.030365,0.011749,-0.069734
0.084077,-0.11185,-0.039826,-0.051728,0.035859,0.013275,-0.019074,-0.066682
0.06424,-0.095674,-0.0383,-0.065461,0.050507,0.005951,-0.012055,-0.083162
0.037995,-0.051728,-0.078889,-0.069123,0.040131,-0.0028992,-0.0044251,-0.079805
-0.040436,0.039216,-0.12497,-0.11734,0.022736,-0.010834,-0.034333,-0.059968
-0.06302,0.030365,-0.11917,-0.11521,-0.016938,-0.0047303,-0.016938,-0.013581
-0.078889,0.027314,-0.12833,-0.087434,-0.018158,-0.0096132,-0.013581,0.028229
-0.12406,0.019379,-0.048981,-0.050202,-0.0068666,-0.024262,-0.026398,0.024262
-0.14481,0.039216,-0.084993,-0.087739,0.0010681,-0.030365,-0.031891,0.018769
-0.13138,0.052033,-0.081331,-0.10758,-0.020294,-0.010224,-0.0022889,0.085908
-0.077668,-0.0206,-0.042878,-0.016327,-0.049287,0.010834,0.037385,0.11154
-0.036774,-0.037385,-0.055695,-0.096895,-0.0032044,0.019379,0.057221,0.095979
0.0383,-0.091402,-0.018769,-0.12161,0.0053407,0.049592,0.070039,0.070649
0.049287,-0.12436,-0.014191,-0.12924,-0.031586,0.052949,0.073701,0.013581
0.0383,-0.094148,-0.02884,-0.012665,-0.0035096,0.016938,0.049287,-0.053864
0.032807,-0.061799,-0.010224,-0.018158,0.027924,-0.012055,0.018158,-0.065156
0.0074769,-0.075532,-0.010834,0.0010681,0.023957,0.01236,-0.0022889,-0.047761
-0.0022889,-0.08011,-0.026398,-0.083162,0.017853,0.026398,-0.037079,-0.072786
-0.025483,-0.06363,-0.052644,-0.094453,0.042267,0.012665,-0.031281,-0.047761
-0.051118,-0.039521,-0.077058,-0.094453,0.08072,0.051118,0.019379,-0.00045777
-0.083467,-0.0065614,-0.092317,-0.095369,0.060578,0.039216,0.070039,0.019684
-0.077058,0.017548,-0.10849,-0.1033,0.017243,-0.033417,-0.040436,0.034028
-0.043793,0.0065614,-0.11612,-0.11337,-0.014191,-0.055085,-0.11337,0.037385
-0.051423,0.034638,-0.11063,-0.077363,-0.023651,-0.086519,-0.0022889,0.031586
-0.10025,0.042573,-0.055695,-0.075227,-0.019684,0.0038148,0.017548,0.06302
-0.12314,0.061189,-0.086213,-0.084993,-0.0206,0.019074,0.039216,0.10758
-0.10727,0.049592,-0.081025,-0.10239,-0.0065614,-0.0041199,0.053254,0.12467
-0.04593,-0.0065614,-0.05417,-0.084993,-0.016327,0.023041,0.05417,0.12589
-0.026703,-0.052949,-0.029755,-0.075227,-0.020294,0.053559,0.076753,0.10971
0.0071717,-0.12284,-0.005951,-0.043488,-0.010834,0.057527,0.069734,0.073396
0.045014,-0.1445,-0.0038148,-0.068513,0.024872,0.03006,0.031891,0.033722
0.017243,-0.086519,-0.01297,-0.066377,0.050507,0.026093,-0.0096132,-0.055085
0.016022,-0.099947,-0.016632,-0.033417,0.036774,0.010529,-0.023651,-0.076143
0.02945,-0.074922,-0.032502,-0.038605,0.045319,0.0099184,0.0090028,-0.058747
0.040436,-0.066377,-0.028229,-0.049592,0.061189,0.017243,0.077974,-0.08011
0.031891,-0.047761,-0.048066,-0.060578,0.059052,0.042878,0.10544,-0.060883
0.0013733,-0.033722,-0.074006,-0.074922,0.026093,0.053559,0.089876,-0.033722
-0.022126,-0.024872,-0.095369,-0.096284,0.010529,0.015106,0.030976,-0.03769
-0.042878,-0.040742,-0.10147,-0.10239,-0.0013733,-0.053559,-0.29038,-0.048371
-0.051118,-0.044099,-0.10666,-0.08835,-0.0053407,-0.033722,-0.21347,-0.051728
-0.051118,0.032502,-0.11337,-0.09781,-0.020294,0.013275,0.11215,-0.0019837
-0.074006,0.07248,-0.096895,-0.103,-0.027314,-0.013886,0.016022,0.0047303
-0.0795,0.058137,-0.096895,-0.12253,-0.014801,-0.01297,0.023651,0.0041199
-0.077668,0.028534,-0.056306,-0.094759,-0.027619,-0.00015259,0.032197,0.048371
-0.040742,-0.02182,-0.04593,-0.009308,-0.051728,0.0068666,0.057527,0.090486
-0.0086976,-0.084993,-0.0019837,-0.065766,-0.023041,0.0062562,0.0010681,0.077363
-0.018158,-0.082246,-0.0038148,-0.11948,0.031891,0.0053407,-0.066682,0.024262
-0.016938,-0.087434,-0.025788,-0.070649,0.034943,0.027924,0.077974,0.070344
0.041352,-0.096895,-0.018769,-0.052644,0.027008,0.059052,0.099031,0.098116
0.060273,-0.099947,-0.022126,-0.05539,0.039521,0.028534,0.020905,-0.013275
0.025788,-0.059358,-0.031891,-0.060883,0.041047,0.0083925,-0.015106,-0.079194
0.02121,-0.059358,-0.044099,-0.041352,0.029145,0.019074,-0.015412,-0.050813
0.016022,-0.059663,-0.061189,-0.069734,0.031891,0.017243,-0.026398,-0.049287
-0.024567,-0.046845,-0.060883,0.02945,0.020905,-0.0077821,-0.022431,-0.033722
-0.029145,-0.028229,-0.10056,-0.13931,0.027008,0.0032044,0.034943,-0.016327
-0.065461,-0.034333,-0.091402,-0.10361,0.062409,-0.039521,0.023041,-0.01236
-0.078889,0.017243,-0.11826,-0.083772,0.027924,-0.049287,-0.0065614,0.0077821
-0.11765,0.064546,-0.095979,-0.10636,-0.016938,-0.01297,0.0056458,0.035248
-0.12802,0.10544,-0.0972,-0.099336,-0.030365,0.009308,0.061799,0.090486
-0.12863,0.093843,-0.082551,-0.10147,-0.040742,0.011444,0.052338,0.093843
-0.09781,0.0096132,-0.048676,-0.10513,-0.042878,0.014801,-0.034943,0.095979
-0.041352,-0.098116,-0.056611,-0.077668,-0.036774,0.056611,0.028229,0.099947
0.005951,-0.11032,-0.031891,-0.058747,-0.023041,0.044404,0.0047303,0.069734
0.040131,-0.13382,0.012665,-0.074311,0.016938,0.02884,0.049897,0.048066
0.015717,-0.12985,0.024262,-0.057527,0.025788,0.041657,0.14084,0.02182
0.035248,-0.13443,-0.014801,-0.055695,0.026703,0.040742,0.16434,0.009308
0.06424,-0.13443,-0.027924,-0.0044251,0.040131,0.014801,0.15,-0.041657
0.057221,-0.12039,-0.031586,-0.037079,0.069734,-0.024262,-0.060883,-0.093843
0.018769,-0.027314,-0.069429,-0.061189,0.053559,-0.0050355,-0.56596,-0.12741
-0.032502,-0.023957,-0.024872,-0.051423,0.026093,0.04715,-0.036469,-0.067292
-0.058137,0.016327,-0.095369,-0.11276,0.033722,0.010529,0.18509,-0.029145
-0.077974,0.029145,-0.09659,-0.11582,0.017548,-0.0056458,0.0032044,-0.0044251
-0.063325,0.042267,-0.11276,-0.10239,-0.0074769,-0.032807,-0.11582,0.029145
-0.094453,0.063325,-0.10758,-0.0972,-0.017243,-0.036164,-0.027314,0.053254
-0.092317,0.066682,-0.10452,-0.098421,-0.022431,-0.0047303,0.11246,0.10575
-0.091707,0.044709,-0.093233,-0.099336,-0.026703,0.021515,0.25925,0.16007
-0.085603,0.041352,-0.078279,-0.12497,-0.050507,0.051118,0.32975,0.10544
-0.048676,0.033417,-0.052033,-0.10758,-0.045014,0.046845,0.18265,0.053559
-0.021515,-0.027619,-0.046845,-0.072175,-0.026398,0.032197,-0.030976,0.012665
-0.016632,-0.071565,-0.016632,-0.058442,-0.0065614,-0.015412,-0.74113,-0.055695
0.024262,-0.12161,-0.036774,-0.048676,0.017243,-0.0077821,-0.2858,-0.023041
0.068513,-0.14481,0.048981,0.023651,0.028229,0.044404,0.26932,-0.06302
0.030365,-0.13993,0.018769,-0.038605,0.067597,0.0010681,0.031891,-0.1384
0.032197,-0.097505,-0.04654,-0.077058,0.077974,-0.030976,0.033112,-0.09781
0.066682,-0.090486,-0.035859,-0.058442,0.063935,-0.012055,0.040131,-0.099336
0.034943,-0.087434,-0.070344,-0.063325,0.041962,0.022431,0.049897,-0.095064
0.0035096,-0.070344,-0.08072,-0.076448,0.037079,-0.0010681,0.039521,-0.034943
-0.032807,-0.012665,-0.09659,-0.10636,0.041657,-0.02121,0.0099184,-0.0035096
-0.04715,0.010224,-0.11215,-0.11582,0.017853,-0.0019837,0.023041,0.028229
-0.073396,0.028534,-0.065766,-0.089265,-0.0083925,-0.0090028,0.022126,0.044404
-0.12558,0.057832,-0.10513,-0.098421,-0.023041,-0.0068666,0.029755,0.067292
-0.11765,0.04593,-0.10056,-0.09781,-0.037385,0.0041199,0.036774,0.14054
-0.07126,0.029145,-0.07248,-0.081331,-0.043488,0.0050355,0.013275,0.16281
-0.038605,0.014191,-0.073396,-0.087434,-0.023346,0.0090028,0.0013733,0.1387
-0.048981,-0.020294,-0.063325,-0.084993,-0.017243,0.010224,-0.015106,0.088045
-0.044709,-0.032502,-0.035859,-0.092622,-0.012665,0.017243,0.009308,0.046235
-0.015106,-0.065766,-0.01236,-0.065461,-0.0047303,0.025177,0.025177,-0.0035096
0.0041199,-0.10086,0.0044251,-0.048981,-0.00015259,0.036164,0.036774,-0.036469
0.014191,-0.11276,0.0053407,-0.044709,0.017243,0.030365,0.033112,-0.042573
0.015106,-0.10788,-0.028534,-0.066682,0.030365,0.0206,0.019684,-0.055695
0.010529,-0.11337,-0.034028,0.01297,0.035859,0.010529,0.026093,-0.05478
0.063935,-0.1265,-0.0206,-0.0062562,0.078279,0.005951,0.026703,-0.0028992
0.039826,-0.093538,-0.018463,-0.082856,0.10544,0.01297,0.022736,-0.0080873
-0.018463,-0.030976,-0.1088,-0.12955,0.044099,0.0038148,0.011139,-0.052644
-0.067903,0.02945,-0.11063,-0.12467,-0.018463,0.020294,0.027314,-0.024567
-0.11978,0.070344,-0.11093,-0.1091,-0.041657,0.026703,0.040436,0.045319
-0.14603,0.077974,-0.13626,-0.10452,-0.025177,0.0071717,0.012055,0.075532
-0.11978,0.05539,-0.12894,-0.095064,-0.034333,0.036774,0.0013733,0.11276
-0.084077,0.040131,-0.070344,-0.11307,-0.014191,-0.0074769,-0.012055,0.11887
-0.061799,0.034333,-0.070344,-0.096895,0.0032044,-0.11063,-0.031281,0.06302
-0.033417,-0.010529,-0.050202,-0.067292,-0.014496,0.0044251,-0.002594,0.019989
-0.018769,-0.045319,-0.03769,-0.061799,-0.015106,0.056611,0.036774,0.022736
-0.0028992,-0.063325,-0.020294,-0.05478,-0.017548,0.035554,0.031281,0.0013733
0.013886,-0.10086,-0.00045777,-0.045319,0.0032044,0.041657,0.0053407,-0.044404
0.088045,-0.14054,-0.0047303,-0.037385,0.023346,0.018463,-0.026703,-0.048981
0.088655,-0.13382,-0.0013733,-0.049287,0.046845,0.0044251,-0.035248,-0.07187
0.063325,-0.11002,-0.015717,-0.054475,0.065766,0.016938,0.025177,-0.091402
0.023041,-0.10697,-0.033722,-0.054475,0.061494,0.016022,0.038911,-0.072786
-0.014801,-0.058137,-0.051728,-0.052644,0.049287,0.002594,-0.010834,-0.075837
-0.042878,-0.043488,-0.065156,-0.066987,0.043488,-0.027619,-0.052644,-0.035859
-0.063935,-0.013886,-0.085298,-0.050507,0.036164,-0.042267,-0.11612,0.016022
-0.089876,0.028534,-0.10208,-0.13962,0.012665,0.045014,0.035248,0.053559
-0.0972,0.04715,-0.10422,-0.16007,-0.0068666,0.044709,0.14206,0.074617
-0.10605,0.066377,-0.11307,-0.09659,-0.042573,0.017243,0.023041,0.063325
-0.12131,0.066072,-0.092622,-0.094759,-0.046845,0.026703,0.023651,0.035859
-0.084993,0.034333,-0.10208,-0.098421,-0.031281,0.010529,0.030976,0.063935
-0.066072,0.014191,-0.061189,-0.092927,-0.017548,0.0099184,0.012665,0.081941
-0.038911,-0.02884,-0.034028,-0.08835,-0.019379,0.0206,0.093843,0.086824
-0.00015259,-0.061799,-0.032807,-0.062409,-0.0090028,0.041657,0.13413,0.082856
0.035554,-0.11948,-0.014801,-0.050202,-0.0041199,0.039521,0.084077,0.050507
0.059968,-0.12039,-0.00076295,-0.030365,0.0074769,0.016327,0.026703,0.0028992
0.0795,-0.1323,-0.0013733,-0.018769,0.036774,-0.033722,-0.28763,-0.054475
0.085298,-0.11429,-0.021515,-0.033722,0.063935,-0.0096132,-0.13809,-0.072175
0.076753,-0.094759,-0.029145,-0.052949,0.07126,0.010224,0.12772,-0.056916
0.018769,-0.067597,-0.057832,-0.073396,0.06363,-0.016938,-0.053864,-0.085603
-0.041962,-0.02182,-0.07126,-0.09659,0.056306,-0.02182,-0.094148,-0.083162
-0.035248,-0.048371,-0.070344,-0.092317,0.026703,0.0022889,0.044404,-0.010834
-0.067597,-0.017853,-0.089265,-0.085298,-0.014801,0.01236,0.068208,0.018158
-0.11307,-0.0016785,-0.10544,-0.083772,-0.012665,0.00045777,0.0090028,-0.010529
-0.10727,0.043488,-0.10727,-0.098421,0.016632,0.019074,0.054475,0.019989
-0.10575,0.076143,-0.12161,-0.1207,0.010529,0.023041,0.034333,0.048066
-0.11307,0.034028,-0.065766,-0.084993,-0.036774,0.033417,-0.018158,0.051728
-0.074617,0.0099184,-0.04715,-0.103,-0.03769,-0.0016785,-0.041352,0.10422
-0.084382,0.018158,-0.073091,-0.10849,-0.0206,-0.017548,0.0019837,0.14511
-0.098421,0.016327,-0.052644,-0.090486,-0.035248,0.015412,0.099031,0.13596
-0.070954,-0.0383,-0.026093,-0.073396,-0.015412,0.012665,0.080415,0.13687
-0.012665,-0.064546,-0.019989,-0.059663,0.012665,0.028229,0.10605,0.098116
0.019989,-0.091707,-0.00015259,-0.036774,0.022736,0.053559,0.10086,0.0035096
0.059663,-0.12497,-0.0099184,-0.040131,0.035248,0.024567,0.025483,-0.047761
0.08011,-0.20584,-0.0077821,-0.02121,0.033417,0.013886,-0.011444,-0.077363
0.07126,-0.11612,-0.034333,-0.047761,0.032197,0.0028992,-0.030671,-0.087129
-0.0047303,-0.03769,-0.045624,-0.070649,0.062409,-0.019989,-0.077974,-0.13993
-0.010834,-0.023651,-0.05417,-0.061799,0.050202,0.0099184,-0.039216,-0.11643
-0.012055,-0.0065614,-0.082856,-0.070954,0.027314,0.011444,-0.0035096,-0.06363
-0.018463,0.013886,-0.10147,-0.094453,0.02182,-0.0013733,-0.032502,-0.035859
-0.051728,0.039216,-0.10697,-0.11978,0.0065614,-0.016022,-0.014801,0.016938
-0.076143,0.026703,-0.11856,-0.11337,-0.020905,-0.014801,0.0077821,0.058137
-0.056611,0.024567,-0.11917,-0.121,-0.035859,-0.016938,0.01297,0.11154
-0.024262,-0.034028,-0.103,-0.11551,-0.041657,-0.0010681,0.0080873,0.11704
-0.045014,-0.015717,-0.048371,-0.08835,-0.035248,0.023957,0.0019837,0.053254
-0.058137,-0.0077821,-0.03006,-0.057527,-0.032502,0.02121,-0.0044251,0.016938
-0.04715,-0.018769,-0.054475,-0.051118,-0.014801,0.022736,0.035554,0.038911
0.014801,-0.08957,-0.034028,-0.026093,0.011139,0.018463,0.029755,0.0077821
0.033112,-0.099641,0.0035096,-0.046845,0.027619,0.01236,0.014801,-0.029145
0.023041,-0.1265,0.033722,0.033112,0.033722,0.012055,0.040131,-0.049287
0.010834,-0.093843,-0.0099184,-0.11948,0.044404,0.015106,-0.086213,-0.056001
0.053864,-0.072175,-0.032502,-0.075837,0.076143,-0.011749,-0.10025,-0.077974
0.050202,-0.060883,-0.036164,-0.041047,0.033722,0.023041,0.019379,-0.045624
-0.011139,-0.0022889,-0.073396,-0.064851,0.030365,0.017853,0.005951,-0.060578
-0.099031,0.002594,-0.076143,-0.082551,0.030976,-0.005951,0.0013733,-0.057221
-0.093843,0.013581,-0.11978,-0.10849,0.0086976,-0.0077821,0.027314,0.00045777
-0.090791,-0.017548,-0.10666,-0.099336,-0.015106,0.018769,0.069123,0.038911
-0.11185,0.056611,-0.11612,-0.095674,-0.026398,0.02884,0.068513,0.050507
-0.12772,0.059663,-0.097505,-0.12253,-0.016632,0.031586,0.04654,0.10849
-0.12406,0.037995,-0.070344,-0.099641,-0.033722,0.028534,0.041657,0.14389
-0.08957,-0.022431,-0.034333,-0.087434,-0.025788,-0.00015259,0.027008,0.10819
-0.072786,-0.018158,-0.023651,-0.089265,-0.0056458,-0.029755,-0.002594,0.067292
-0.015106,-0.10269,-0.026703,-0.050507,-0.019684,0.012665,-0.0083925,0.086824
0.00076295,-0.077668,-0.042878,-0.035554,-0.010834,0.053254,0.057832,0.055695
-0.012055,-0.040436,-0.058747,-0.053254,0.026703,0.025177,0.11093,0.013581
0.028229,-0.054475,-0.037995,-0.068208,0.03006,0.0068666,0.12985,0.015106
0.067292,-0.10605,-0.019684,-0.067597,0.039826,-0.005951,0.08835,-0.0062562
0.070344,-0.13565,-0.022126,-0.036774,0.03769,0.0065614,-0.2385,-0.063325
0.081941,-0.11826,-0.027619,-0.058747,0.045624,-0.0010681,-0.38865,-0.087739
0.089876,-0.15274,-0.0074769,-0.044709,0.053559,0.030365,0.08011,-0.041047
0.06302,-0.096895,-0.053254,-0.042267,0.035554,0.028534,0.10391,-0.062104
0.0028992,-0.00045777,-0.085298,-0.078584,0.037385,-0.011749,-0.012055,-0.10452
-0.067903,0.053254,-0.1088,-0.082551,0.0019837,0.0090028,0.031586,-0.093843
-0.13962,0.074006,-0.12131,-0.06424,-0.0056458,0.014801,0.12161,-0.030671
-0.095674,0.033417,-0.086213,-0.093538,0.051423,0.010834,0.2562,0.064546
-0.096895,0.036469,-0.10269,-0.18784,-0.0032044,0.030671,0.20554,0.0795
-0.10025,0.049287,-0.10819,-0.16129,-0.055695,0.0044251,0.11032,0.099641
-0.099336,0.042267,-0.094453,-0.10971,-0.040742,-0.045624,-0.58152,0.10422
-0.079805,-0.010834,-0.068208,-0.064851,-0.032807,-0.10727,-0.64469,0.11917
-0.049287,-0.036774,-0.032807,-0.083467,-0.02945,0.00015259,0.22354,0.11002
-0.037079,-0.053559,0.0083925,-0.044099,-0.0013733,0.074617,0.15824,0.034333
-0.0086976,-0.076448,-0.015717,-0.040436,0.0038148,0.056306,0.10452,-0.00045777
0.017243,-0.096895,-0.02884,-0.062715,0.022126,0.037079,0.11582,-0.018158
0.040436,-0.11032,-0.010224,-0.051118,0.02121,0.03006,0.077668,-0.035248
0.041047,-0.11032,-0.019989,-0.048676,0.040131,0.022431,0.06302,-0.02945
0.061494,-0.091707,-0.026398,-0.038911,0.044404,0.022431,0.025483,-0.04654
0.070039,-0.06424,-0.032807,-0.04715,0.045014,0.010529,0.0050355,-0.056916
0.023346,-0.070954,-0.055695,-0.026093,0.041352,-0.005951,-0.010224,-0.089265
-0.018463,-0.0383,-0.095979,-0.090791,0.043183,-0.0099184,-0.013581,-0.093233
-0.051423,-0.0068666,-0.11307,-0.12955,0.024262,-0.0038148,0.0019837,-0.050813
-0.069429,0.0206,-0.10208,-0.16526,-0.0028992,0.010834,0.10636,0.0056458
-0.094148,0.051118,-0.092927,-0.088655,-0.020294,0.0099184,0.17899,0.057221
-0.12222,0.077363,-0.11551,-0.077668,-0.034943,0.015412,0.19455,0.078279
-0.0972,0.058137,-0.10147,-0.092317,-0.035859,0.039216,0.14206,0.08957
-0.10056,0.037995,-0.092012,-0.11063,-0.026703,-0.019379,-0.69383,0.013581
-0.078279,0.0044251,-0.058747,-0.08957,-0.024262,-0.03006,-0.41215,0.04715
-0.048371,-0.021515,-0.042267,-0.066987,-0.016327,0.038911,0.31907,0.0795
-0.015412,-0.068513,-0.019684,-0.045319,0.0071717,0.028229,0.12528,0.052033
-0.00076295,-0.099947,-0.0065614,-0.048676,0.0032044,0.040436,0.12619,0.069734
0.022126,-0.13382,-0.011749,-0.048981,0.016632,0.038911,0.052033,0.037079
0.052338,-0.14298,0.014801,-0.041352,0.046235,-0.0022889,0.0035096,0.0028992
0.039521,-0.11612,-0.029755,-0.076753,0.076143,-0.019684,-0.0083925,-0.03769
0.032197,-0.11185,-0.030976,-0.041047,0.06424,-0.013581,-0.019379,-0.033722
0.04654,-0.081941,-0.049897,-0.0383,0.024262,0.014801,0.00045777,-0.033417
0.015412,-0.062409,-0.024872,-0.034333,0.031281,0.00015259,0.017853,-0.057527
-0.06302,0.025177,-0.11032,-0.08896,0.054475,-0.030976,0.0016785,-0.04654
-0.08835,0.033417,-0.093538,-0.10056,0.018158,-0.011749,-0.014496,-0.0080873
-0.097505,0.037385,-0.10361,-0.10086,-0.021515,0.022736,0.066377,0.040436
-0.103,0.047761,-0.1207,-0.077363,-0.038911,0.019074,0.13016,0.074006
-0.075837,0.015106,-0.065766,-0.04715,-0.048981,0.033112,0.1442,0.084077
-0.055695,0.018158,-0.092012,-0.094759,-0.019684,0.0083925,0.11673,0.059358
-0.040742,0.030671,-0.084993,-0.13107,-0.020294,-0.043488,-0.077363,0.047761
-0.045319,0.0016785,-0.052033,-0.12741,-0.059358,-0.010224,-0.1323,0.017853
-0.023651,-0.058747,-0.01236,-0.14267,-0.0053407,0.030365,-0.13077,-0.0065614
-0.0010681,-0.10239,-0.0077821,-0.13199,0.067903,0.037385,-0.19455,-0.020905
0.041657,-0.11368,-0.017853,-0.025483,0.044404,0.041047,0.079805,-0.0062562
0.068513,-0.10605,-0.012665,-0.044099,0.0074769,-0.0062562,-0.0062562,-0.02884
0.042267,-0.11795,-0.027619,-0.011444,0.02182,-0.01297,0.0056458,-0.058137
0.013886,-0.1323,-0.041657,-0.015412,0.031891,0.026093,0.13107,-0.036774
0.033112,-0.12375,-0.016327,-0.011444,0.047456,0.012665,0.053864,-0.036469
0.013581,-0.064546,-0.049287,-0.10269,0.044404,0.019074,0.011139,-0.077363
-0.022126,-0.010834,-0.046235,-0.097505,0.041657,0.0013733,-0.023041,-0.081025
-0.056001,0.037385,-0.092012,-0.078279,0.033112,-0.019379,-0.051728,-0.029755
-0.079194,0.049897,-0.13352,-0.10666,0.02945,-0.032197,-0.0065614,0.030976
-0.099947,0.032197,-0.099336,-0.095369,-0.014496,-0.021515,0.0090028,0.088655
-0.14664,0.13077,-0.13565,-0.10849,-0.042878,0.010529,0.047761,0.12192
-0.15854,0.10513,-0.082856,-0.089876,-0.039521,0.03006,0.086824,0.12772
-0.10056,0.040131,-0.092927,-0.097505,-0.036469,0.02945,0.08957,0.12039
-0.031891,-0.0086976,-0.063325,-0.08896,-0.030365,0.028534,0.11978,0.11154
0.041657,-0.060273,-0.036774,-0.078889,-0.031586,0.042878,0.099641,0.10086
0.013275,-0.068513,-0.035554,-0.058747,-0.022126,0.024872,-0.048371,0.021515
0.016938,-0.10575,-0.023957,-0.052644,0.0035096,-0.0047303,-0.18265,-0.010529
0.039826,-0.17288,0.0099184,-0.038605,0.019074,-0.011139,-0.042878,-0.020905
0.048066,-0.1857,-0.0062562,-0.039521,0.042267,0.00015259,0.026703,-0.039521
0.042267,-0.168,-0.016938,-0.048676,0.059968,0.022126,0.035248,-0.036774
0.019074,-0.078584,-0.024872,-0.065156,0.05539,0.0071717,0.0080873,-0.04715
-0.035248,-0.05417,-0.045624,-0.071565,0.044404,-0.0068666,-0.019074,-0.040436
-0.026703,-0.048066,-0.057832,-0.086519,0.043488,-0.0047303,-0.053559,-0.041657
-0.055085,-0.014496,-0.078279,-0.085908,0.019379,-0.017548,-0.040436,-0.018463
-0.078279,0.014191,-0.08896,-0.09781,-0.00015259,0.014191,0.047761,0.0074769
-0.11826,0.082551,-0.10269,-0.093843,-0.0086976,0.025483,0.032197,0.023346
-0.12345,0.090486,-0.10147,-0.069734,-0.025177,0.016327,0.02884,0.038911
-0.10117,0.051118,-0.092622,-0.063325,-0.01297,0.0053407,0.026093,0.02945
-0.087434,0.062715,-0.11887,-0.11734,-0.0080873,0.0013733,0.015717,0.031586
-0.065461,0.075837,-0.12711,-0.15274,-0.047456,0.016938,0.044404,0.0032044
-0.025788,-0.016632,-0.044099,-0.11276,-0.057832,0.030976,0.063325,-0.015106
-0.00045777,-0.056611,-0.034943,-0.087739,-0.026703,0.016327,0.050507,-0.0086976
0.0096132,-0.094759,-0.0077821,-0.052338,-0.013581,0.010529,-0.075532,-0.00076295
0.049287,-0.17472,0.038605,0.040131,0.025177,0.0044251,-0.075227,0.0013733
0.066377,-0.16068,-0.0099184,-0.0080873,0.090486,-0.013275,0.011444,-0.018463
0.072786,-0.1268,-0.0086976,-0.055085,0.069734,0.01236,0.011444,-0.031586
0.066682,-0.10788,-0.014191,-0.069734,0.0383,0.029145,0.022736,-0.032807
0.044099,-0.08011,-0.029145,-0.078889,0.045624,0.010224,0.0041199,-0.045319
0.014801,-0.02884,-0.077363,-0.042573,0.020905,0.026398,0.010529,-0.027008
-0.040436,0.0019837,-0.087129,-0.06302,0.018158,0.034333,-0.0013733,-0.019684
-0.057221,-0.015717,-0.090486,-0.11887,0.027314,0.016327,0.002594,-0.0047303
-0.1033,0.031891,-0.0972,-0.14115,-0.002594,-0.076143,0.0038148,0.013275
-0.077363,0.0206,-0.099031,-0.16007,-0.015412,-0.023957,-0.0047303,0.041657
-0.08011,0.024567,-0.08835,-0.062715,0.0035096,-0.0010681,0.02182,0.057221
-0.072786,0.060273,-0.11368,-0.095674,-0.009308,-0.037385,-0.010834,0.040436
-0.079194,0.030671,-0.076753,-0.060578,-0.041047,0.028534,0.0028992,0.069429
-0.058137,0.0053407,-0.053254,-0.070954,-0.023651,0.018769,0.0096132,0.067292
-0.053254,-0.018769,-0.051118,-0.081025,-0.018769,0.0068666,0.016022,0.048981
-0.049897,-0.024872,-0.049287,-0.10666,-0.017548,0.016632,0.0013733,0.0019837
-0.022431,-0.083467,-0.024262,-0.039521,-0.011139,0.023957,0.0080873,0.0086976
-0.023346,-0.084382,-0.0028992,-0.023041,-0.00045777,0.024872,0.0041199,0.0016785
-0.0090028,-0.09659,-0.025483,-0.11673,0.045014,0.0047303,0.005951,-0.027314
0.012055,-0.1268,-0.005951,-0.046235,0.054475,0.002594,0.027008,-0.04654
0.0047303,-0.13046,-0.00045777,-0.040436,0.041657,0.022431,0.049287,-0.039521
0.030365,-0.15824,-0.016632,-0.050507,0.049592,0.02945,0.06302,0.018158
0.043183,-0.14847,-0.026398,-0.038911,0.029145,0.031586,0.11887,0.052949
0.032807,-0.031586,-0.098116,-0.075532,0.035248,0.0086976,0.10636,0.0071717
-0.019074,0.041962,-0.11826,-0.11551,0.031281,0.0010681,0.04593,0.0038148
-0.0056458,0.04593,-0.11246,-0.121,-0.013275,0.021515,-0.043488,0.05539
-0.04715,0.062104,-0.11124,-0.10452,-0.017243,0.017243,-0.31815,0.044404
-0.076143,0.061189,-0.11032,-0.11276,-0.030976,-0.0038148,-0.20554,0.027008
-0.1091,0.059663,-0.094453,-0.11521,-0.037385,-0.0053407,0.096284,0.054475
-0.11185,0.035554,-0.092012,-0.103,-0.028534,-0.0010681,0.048371,0.063935
-0.065766,0.0022889,-0.063325,-0.078889,-0.033112,0.024262,0.037079,0.065156
-0.040742,-0.016938,-0.045624,-0.08835,-0.011444,0.014191,0.028229,0.01297
-0.034638,-0.040131,-0.032807,-0.04715,0.0071717,0.00045777,0.037079,0.0028992
0.0053407,-0.099641,-0.0044251,-0.033112,0.010529,0.0083925,0.053254,0.0056458
0.019684,-0.13443,-0.01297,-0.044099,0.023651,0.031586,0.063935,-0.028229
0.024262,-0.11765,-0.015717,-0.043183,0.0383,0.015412,0.044099,-0.081941
0.032197,-0.11398,-0.0077821,-0.044709,0.037995,0.0047303,0.057527,-0.051728
0.043488,-0.1384,0.019684,-0.018158,0.062104,0.002594,-0.040436,-0.055695
0.041047,-0.10269,-0.048981,-0.050507,0.07187,-0.0032044,-0.040742,-0.067292
0.0053407,-0.048066,-0.070954,-0.077668,0.04593,-0.0032044,-0.018769,-0.076753
-0.042878,0.012665,-0.10605,-0.095674,0.025788,-0.0019837,0.010529,-0.072175
-0.0795,0.05539,-0.10483,-0.11551,0.0050355,0.013275,0.10483,-0.049287
-0.11002,0.087129,-0.10727,-0.11887,-0.016327,0.016022,0.12497,0.0206
-0.10819,0.063325,-0.11826,-0.11368,-0.028229,0.010834,0.12711,0.082246
-0.089265,0.041657,-0.103,-0.1149,-0.034333,-0.029755,0.078279,0.13077
-0.041352,0.058442,-0.087129,-0.095064,-0.035248,-0.039521,-0.17288,0.16861
-0.049592,0.0053407,-0.054475,-0.095674,-0.038911,0.051118,0.12924,0.15213
-0.041962,-0.048371,-0.053864,-0.090486,-0.023651,0.0050355,-0.2269,0.091707
-0.023041,-0.063935,-0.039826,-0.07126,-0.01236,-0.051118,-0.8043,0.040436
-0.021515,-0.086519,-0.018769,-0.067292,-0.0068666,0.055695,0.23636,0.049897
0.0010681,-0.13687,-0.0065614,-0.057527,0.029145,0.050202,0.28428,-0.012665
-0.0056458,-0.097505,-0.010529,-0.055085,0.019379,0.011444,0.076753,-0.027619
0.013275,-0.10361,-0.00076295,-0.031586,0.032197,0.002594,0.077668,-0.059663
0.03006,-0.13413,-0.020294,-0.044099,0.051728,-0.0035096,-0.015106,-0.078279
0.03006,-0.10391,0.0047303,-0.040131,0.056001,0.0038148,0.014191,-0.065156
-0.0013733,-0.088045,-0.055085,-0.056916,0.049897,0.0047303,0.057221,-0.06302
0.010529,-0.02182,-0.085908,-0.076448,0.041352,-0.0032044,0.084688,-0.033722
-0.009308,0.014191,-0.10483,-0.094453,0.026093,-0.0062562,0.065766,-0.045014
0.01297,-0.010834,-0.11246,-0.082856,-0.0071717,0.02884,0.0035096,0.014801
-0.0047303,-0.039521,-0.094759,-0.09659,-0.014191,0.010224,-0.07187,-0.0096132
-0.08896,0.011749,-0.093233,-0.10697,-0.009308,-0.0016785,-0.049897,-0.047456
-0.0972,0.070649,-0.103,-0.09659,-0.00076295,0.0010681,0.051118,0.027008
-0.10727,0.093843,-0.10117,-0.10941,0.00076295,-0.0068666,0.0068666,0.060273
-0.10849,0.065461,-0.075837,-0.11948,-0.02121,-0.0038148,0.02182,0.070039
-0.13046,0.039521,-0.044404,-0.032502,-0.057221,0.0065614,0.057527,0.098421
-0.10391,0.0074769,-0.033112,-0.069734,-0.018769,0.0028992,0.030976,0.11093
-0.067903,-0.022126,-0.010834,-0.13596,0.017853,0.036164,0.045624,0.12894
-0.0065614,-0.099336,-0.011444,-0.05417,-0.0035096,0.05417,0.14542,0.060578
0.024262,-0.12375,-0.0074769,-0.066987,-0.00045777,0.050813,0.24094,0.045624
0.02182,-0.12955,-0.0080873,-0.062409,0.017548,0.052338,0.26993,0.0050355
0.015412,-0.13199,-0.018769,-0.014191,0.017548,0.035248,0.16464,-0.033722
0.02945,-0.14145,-0.044099,0.023651,0.043793,0.00076295,-0.71824,-0.076753
0.0099184,-0.11582,-0.024567,-0.013581,0.070344,-0.0056458,-0.49119,-0.073396
0.027008,-0.082551,-0.074922,-0.090486,0.045319,-0.0010681,0.17929,-0.031281
0.023346,-0.070954,-0.098726,-0.16617,0.022736,-0.0080873,0.042267,-0.042878
-0.02884,0.060273,-0.11856,-0.12711,0.015412,-0.023346,0.037079,-0.022431
-0.087129,0.085603,-0.11154,-0.10971,0.0071717,0.012665,0.027008,-0.0041199
-0.077668,0.074311,-0.11337,-0.10361,-0.026703,0.0028992,0.030365,0.030976
-0.08072,0.028534,-0.082246,-0.094453,-0.049592,0.0080873,0.070344,0.085603
-0.059052,-0.0068666,-0.087434,-0.10086,-0.041962,0.024262,0.087434,0.058137
-0.035859,0.0047303,-0.085908,-0.10086,-0.03769,0.024567,0.085298,-0.0056458
-0.029755,-0.0099184,-0.046235,-0.06302,-0.015412,0.0019837,0.036774,0.0041199
-0.0041199,-0.074311,0.042267,-0.019684,0.009308,-0.011749,-0.10391,0.023346
0.014191,-0.083467,-0.022431,-0.037385,0.037079,-0.0080873,-0.065766,0.013581
0.029145,-0.074922,-0.022431,-0.03006,0.045624,0.0010681,0.038911,-0.015717
0.0035096,-0.094759,-0.012055,-0.091096,0.030365,0.0053407,0.027924,-0.033722
-0.0050355,-0.093843,-0.022736,-0.087434,0.037995,0.01297,0.031586,-0.049287
0.0010681,-0.11368,-0.0041199,-0.030976,0.034028,0.028534,0.02121,-0.066987
-0.0032044,-0.074617,-0.066682,-0.05417,0.042267,0.010224,0.017853,-0.05478
-0.0074769,-0.050507,-0.086519,-0.062715,0.033417,0.005951,0.016632,-0.035859
0.0050355,-0.050202,-0.052949,-0.060883,0.023041,0.011139,0.00045777,-0.022431
-0.022736,0.013581,-0.10849,-0.10636,0.028229,-0.011444,-0.030671,-0.01236
-0.048676,0.048676,-0.12253,-0.103,0.002594,-0.014801,-0.013275,0.023346
-0.092927,0.05539,-0.10666,-0.11765,-0.014801,-0.01297,-0.010529,0.047456
-0.094148,0.05417,-0.11368,-0.12711,-0.026398,-0.010224,0.0096132,0.05539
-0.058747,0.022736,-0.090791,-0.10544,-0.041962,0.014801,0.026703,0.059663
-0.058747,0.014496,-0.073091,-0.09781,-0.047456,0.029145,0.034333,0.041962
-0.074617,-0.026703,-0.046235,-0.058747,-0.041962,0.019379,0.033112,0.04593
-0.010834,-0.048371,-0.034638,-0.05478,-0.01297,0.018769,0.050507,0.066377
-0.023346,-0.063935,-0.024872,-0.034943,0.013275,0.014191,0.053864,0.05417
-0.02945,-0.06424,-0.026398,-0.061494,0.023957,0.010224,0.052949,0.037385
-0.015717,-0.095979,-0.016632,-0.080415,0.033722,0.025483,0.027924,0.02182
-0.011444,-0.093843,-0.01236,-0.06363,0.023041,0.026093,0.0077821,0.0032044
-0.019379,-0.08957,-0.034333,-0.058747,0.011139,0.010529,0.0053407,0.0096132
-0.0035096,-0.11948,0.04593,-0.029145,0.016632,-0.032197,0.0071717,0.030365
0.029755,-0.092927,-0.040436,-0.056306,0.033112,0.051728,0.013275,-0.026703
0.07187,-0.086824,-0.0795,-0.12436,0.064546,0.019989,0.0041199,-0.067903
0.038911,-0.050813,-0.08896,-0.062715,0.018769,0.018463,-0.023346,-0.06363
-0.047761,0.033722,-0.11673,-0.064851,0.025483,0.0038148,-0.019684,-0.04654
-0.085603,0.056001,-0.11154,-0.067597,0.057221,-0.051728,0.0047303,-0.0065614
-0.099031,0.036164,-0.11917,-0.083772,0.013886,-0.012055,0.011444,0.045319
-0.11337,0.049897,-0.10056,-0.13291,-0.022126,0.0099184,0.037995,0.051423
-0.10025,0.051118,-0.095369,-0.11337,-0.038605,0.0044251,0.059968,0.06363
-0.077668,0.033722,-0.074922,-0.092927,-0.015412,-0.019989,-0.069429,0.06363
-0.044404,-0.016632,-0.011749,-0.060883,-0.01236,0.0022889,-0.075532,0.048371
-0.00015259,-0.077668,-0.027924,-0.044099,-0.0065614,0.019379,0.042267,0.017853
0.033722,-0.09659,-0.016938,-0.037385,0.015412,-0.00015259,-0.0080873,0.0016785
0.048981,-0.10483,-0.020905,-0.075837,0.010529,0.020294,0.0096132,-0.010834
0.044099,-0.121,-0.013581,-0.084688,0.0047303,0.026703,0.023041,-0.018769
0.063935,-0.13687,-0.0080873,-0.059358,0.016632,0.031281,0.017243,-0.042878
0.061799,-0.14023,-0.045624,-0.059663,0.03006,0.032807,0.029755,-0.056001
0.062104,-0.12589,-0.029145,-0.064851,0.041047,0.010529,0.013275,-0.049897
0.0071717,-0.052338,-0.050202,-0.065461,0.043488,0.0044251,-0.025788,-0.053864
-0.043793,0.016327,-0.069429,-0.048981,0.034028,-0.0068666,0.027924,-0.020905
-0.12467,0.04654,-0.094148,-0.069734,0.02182,0.00015259,0.075837,0.0013733
-0.14481,0.099947,-0.11337,-0.13321,0.005951,-0.010834,0.090791,0.027619
-0.1503,0.087739,-0.10697,-0.037079,-0.033112,-0.014191,0.05417,0.07126
-0.12802,0.062104,-0.10605,-0.17807,-0.059358,0.016938,0.036774,0.063325
-0.13474,0.061799,-0.10056,-0.15885,-0.028229,0.028229,-0.18662,0.017548
-0.1146,0.0022889,-0.065156,-0.091096,-0.053559,0.042878,-0.2858,0.04715
-0.015106,-0.11978,-0.040742,-0.069429,-0.056611,0.041352,0.14054,0.10269
0.0071717,-0.12863,-0.052949,-0.068513,-0.022126,0.0099184,0.12985,0.092012
0.0071717,-0.043488,-0.035859,-0.050813,0.025177,-0.02945,0.049592,0.052033
0.032807,-0.05478,-0.012665,-0.045624,0.019989,0.010529,0.076143,0.061799
0.068208,-0.11551,0.0083925,-0.033112,0.019379,0.045319,0.06363,0.066072
0.071565,-0.11551,-0.0086976,-0.041047,0.044099,-0.0068666,0.050507,0.032197
0.034333,-0.094453,-0.016938,-0.046845,0.077363,-0.030976,0.087739,-0.029145
0.011139,-0.084993,-0.026703,-0.041657,0.083162,0.0038148,0.07248,-0.056001
-0.0053407,-0.073396,-0.049897,-0.035554,0.041657,0.036469,0.12528,-0.024567
-0.0383,-0.02884,-0.070649,-0.041657,0.035859,0.034028,0.15427,-0.040436
-0.082856,0.016327,-0.10056,-0.077363,0.030365,-0.011444,-0.10452,-0.053864
-0.093233,0.035554,-0.10025,-0.096895,0.005951,0.016327,-0.045014,-0.0083925
-0.12985,0.046235,-0.082856,-0.12314,-0.020905,0.015106,-0.63218,-0.061189
-0.099641,0.029755,-0.11124,-0.22599,-0.035859,0.0013733,-0.27756,-0.012055
-0.065156,0.041352,-0.11307,-0.19974,-0.011444,0.019074,0.31418,0.06424
-0.031586,0.027924,-0.090791,-0.033112,-0.0056458,0.010224,0.08957,0.035554
-0.041352,0.012665,-0.088655,-0.050507,-0.027619,-0.014801,0.050507,-0.0035096
-0.0062562,-0.01236,-0.056611,-0.060883,-0.027314,-0.015106,0.045014,-0.0022889
0.015106,-0.048676,-0.041657,-0.068513,-0.018158,0.0090028,0.06424,-0.00076295
0.04715,-0.10971,-0.016327,-0.051118,-0.01297,0.0099184,0.027619,-0.020294
0.082856,-0.18204,-0.0044251,-0.030671,0.0047303,0.024872,0.016022,0.019379
0.084688,-0.13993,0.039826,-0.013275,0.034028,0.011444,0.059663,0.027008
0.054475,-0.11734,0.0053407,-0.056306,0.062409,-0.033417,-0.0022889,0.012055
0.0038148,-0.077363,-0.049287,-0.087434,0.073396,-0.043793,-0.051728,0.027008
-0.01236,-0.073701,-0.036469,-0.016632,0.057221,-0.0028992,0.016938,0.019989
-0.051728,-0.025788,-0.07126,-0.05539,0.062409,-0.0035096,0.016632,-0.013581
-0.066987,-0.020294,-0.078584,-0.070344,0.041657,0.0047303,0.034028,-0.023651
-0.06302,0.0053407,-0.062104,-0.084382,0.010834,0.025177,0.051728,-0.0083925
-0.06363,0.018158,-0.1149,-0.12436,0.013581,0.028229,0.031891,-0.002594
-0.058747,0.0080873,-0.11276,-0.1207,-0.026398,0.049592,0.024872,0.0074769
-0.08011,0.033112,-0.097505,-0.11765,-0.047456,0.048981,0.0041199,-0.015717
-0.097505,0.061799,-0.096895,-0.1088,-0.041047,-0.0019837,-0.019074,0.0074769
-0.11734,0.091096,-0.097505,-0.095064,-0.034333,0.00015259,0.0047303,0.050202
-0.099031,0.07248,-0.07126,-0.090486,-0.017243,0.012055,0.017853,0.051423
-0.083162,0.013581,-0.048371,-0.072175,-0.012055,0.01297,0.023041,0.056611
-0.085908,-0.022736,-0.029755,-0.075227,-0.0041199,0.010834,0.058442,0.026093
-0.051728,-0.057527,-0.020294,-0.051423,-0.00076295,0.026703,0.06363,0.070344
-0.034333,-0.11185,-0.0096132,-0.044404,0.012665,0.038911,0.043793,0.07187
0.0096132,-0.15183,-0.0065614,-0.04715,0.036774,0.02945,0.025788,0.034333
0.036164,-0.17868,-0.017548,-0.037079,0.053254,0.018463,0.011139,-0.00045777
0.041962,-0.18631,-0.026398,-0.056306,0.055695,0.019989,0.036774,-0.023651
0.02121,-0.10483,-0.024567,-0.056306,0.033722,0.0022889,-0.055695,-0.035554
0.034943,-0.059358,-0.06302,-0.067292,0.037385,-0.027924,-0.1799,-0.039521
0.014801,-0.026093,-0.078279,-0.078889,0.03769,-0.014801,-0.065156,-0.030976
-0.033112,0.02182,-0.087129,-0.092927,0.012055,0.020294,0.065766,-0.073396
-0.047456,0.041657,-0.11978,-0.10391,-0.0062562,0.01236,0.03006,-0.060578
-0.059663,0.059358,-0.121,-0.10239,-0.022431,0.0041199,0.034943,-0.021515
-0.075227,0.05539,-0.10971,-0.11551,-0.02884,0.0077821,0.03006,-0.024872
-0.069429,0.040131,-0.12161,-0.12436,-0.04593,0.015106,0.019684,0.030365
-0.05478,-0.00015259,-0.036774,-0.059663,-0.036469,0.0090028,0.029145,0.057832
-0.043793,-0.020905,-0.035859,-0.069429,-0.0053407,0.0050355,0.023651,0.066682
-0.0068666,-0.062409,-0.032502,-0.049592,0.029755,-0.009308,0.016022,0.094759
0.035554,-0.082856,-0.048981,-0.058442,0.0206,0.0041199,0.018158,0.067597
0.010834,-0.056306,0.00045777,-0.02945,0.030365,0.010834,0.016938,0.031586
0.020905,-0.078279,-0.0068666,-0.051728,0.034333,0.010834,0.025177,0.033722
0.049897,-0.10605,-0.020294,-0.06424,0.040131,0.01297,0.0086976,0.019684
0.043793,-0.10666,-0.018463,-0.059663,0.030976,0.0206,0.017243,-0.0050355
0.027619,-0.103,-0.024567,-0.073701,0.033417,0.015412,0.022126,-0.0047303
-0.0074769,-0.094453,-0.04715,-0.07248,0.032197,0.016632,0.012055,0.018158
-0.010224,-0.079805,-0.064851,-0.033722,0.018769,0.0044251,-0.0050355,-0.018463
-0.043183,-0.027314,-0.087129,-0.041657,0.045319,0.0080873,-0.00045777,-0.033417
-0.053864,-0.03769,-0.090181,-0.12131,0.061494,0.019379,0.020905,-0.037385
-0.075227,0.045624,-0.11093,-0.14359,-0.014496,0.0090028,0.045014,-0.036469
-0.10025,0.070344,-0.103,-0.11917,-0.059052,0.0071717,0.039826,-0.0206
-0.10178,0.075837,-0.097505,-0.084993,-0.04715,0.0010681,0.032807,-0.0028992
-0.10727,0.070344,-0.10025,-0.11093,-0.028534,-0.035554,0.035554,0.055695
-0.1387,0.060273,-0.093233,-0.11063,-0.02884,-0.021515,-0.057221,0.075227
-0.067597,-0.018769,-0.053254,-0.093233,-0.046845,0.037995,-0.1268,0.099031
0.011139,-0.084993,-0.045014,-0.08957,-0.033112,0.068208,0.039521,0.1091
0.019379,-0.08011,0.0099184,-0.056306,-0.0071717,0.058747,0.067903,0.046845
0.032807,-0.091402,-0.0090028,-0.078279,0.029755,-0.045624,-0.0062562,0.022736
0.027619,-0.10147,-0.0038148,-0.025483,0.051423,-0.033722,-0.0013733,-0.0041199
0.032807,-0.12222,-0.011444,-0.010529,0.070039,0.045624,0.095674,-0.029755
0.039826,-0.12802,0.00045777,0.0010681,0.07126,-0.0047303,0.031586,-0.040436
0.015717,-0.098116,-0.030671,-0.033722,0.046235,-0.0010681,-0.10727,-0.081636
0.036164,-0.072786,-0.06424,-0.076753,0.022126,0.024262,0.016938,-0.087739
-0.012665,-0.022431,-0.078279,-0.10391,0.016022,0.0028992,0.0096132,-0.083467
-0.037079,-0.013581,-0.094148,-0.12314,0.049592,0.0032044,-0.0044251,-0.052644
-0.058137,0.017548,-0.10025,-0.10269,0.0074769,0.042573,0.052033,-0.0013733
-0.086213,0.027924,-0.095979,-0.094453,-0.019684,0.019989,0.059663,0.026703
-0.086824,0.042267,-0.097505,-0.08835,-0.016938,0.0038148,0.034028,0.029145
-0.08835,0.055695,-0.094453,-0.10056,-0.026703,-0.009308,-0.055085,0.025788
-0.078279,0.061494,-0.10727,-0.11948,-0.045319,-0.0013733,-0.14572,0.057832
-0.092317,0.033112,-0.076143,-0.092317,-0.047761,0.056916,0.086824,0.10361
-0.061494,-0.020294,-0.026093,-0.061799,-0.01297,0.038911,0.19669,0.11826
-0.01236,-0.061799,-0.039216,-0.083772,0.026703,-0.0032044,0.1387,0.072786
0.013581,-0.061494,-0.0065614,-0.037079,0.009308,0.015412,0.15854,0.063325
0.009308,-0.08072,-0.0080873,-0.023651,0.027924,-0.037385,-0.08896,0.025177
0.0096132,-0.098726,-0.026398,-0.052644,0.059968,-0.027619,-0.11643,-0.0071717
-0.012665,-0.12467,-0.0028992,-0.044709,0.054475,0.014496,-0.039826,-0.050813
0.0035096,-0.09781,-0.035554,-0.056916,0.048371,0.020905,-0.1146,-0.036469
-0.0028992,-0.099641,-0.036164,-0.062715,0.031891,0.045624,0.29038,0.014191
-0.0022889,-0.072786,-0.041657,-0.069123,0.016632,0.057221,0.29221,-0.0047303
-0.040742,-0.025788,-0.066682,-0.092927,0.023957,0.0028992,-0.27695,-0.051728
-0.066987,0.015412,-0.11276,-0.10147,0.00076295,-0.016938,-0.78416,-0.067292
-0.060578,-0.0016785,-0.10971,-0.098421,-0.015106,0.035554,0.15946,0.023041
-0.06363,0.041352,-0.11643,-0.12131,-0.014191,-0.009308,0.14603,0.0096132
-0.08011,0.07187,-0.11704,-0.10727,-0.025788,-0.0096132,0.038911,0.025177
-0.070649,0.028229,-0.13962,-0.091707,-0.031281,0.027314,0.12894,0.041657
-0.027619,-0.0028992,-0.078584,-0.090486,-0.02884,0.015106,0.10391,0.068208
0.023041,-0.06363,0.0074769,-0.035248,0.0068666,-0.016022,0.051728,0.067597
0.023346,-0.048371,-0.052033,-0.044404,0.024872,-0.058137,-0.0056458,0.031586
0.0090028,-0.046235,-0.035554,-0.087434,0.016632,-0.040436,-0.089265,0.0038148
0.069429,-0.084688,-0.013581,-0.060273,-0.0062562,0.048981,0.020294,-0.00045777
0.13046,-0.10208,-0.0083925,-0.060578,0.010529,0.051423,0.10544,-0.024872
0.060578,-0.11246,-0.00045777,-0.03769,0.037079,0.011444,0.016632,-0.067903
0.013581,-0.12863,0.0062562,-0.064546,0.048371,0.0071717,0.027619,-0.0795
-0.0206,-0.099336,-0.015412,-0.068208,0.050202,0.020905,0.059358,-0.064851
-0.06363,-0.050507,-0.049287,-0.066377,0.036164,0.023957,0.044099,-0.028229
-0.09781,-0.034333,-0.076143,-0.082551,0.023041,0.023346,0.022736,-0.014801
-0.11154,0.02182,-0.077058,-0.042573,0.020905,-0.023957,-0.016938,-0.0065614
-0.13199,0.011444,-0.076143,-0.081636,0.017243,-0.02121,-0.042878,0.026093
-0.12253,0.052338,-0.10361,-0.13169,-0.0065614,0.002594,-0.0062562,0.069734
-0.10788,0.084688,-0.10697,-0.13107,-0.012665,-0.010224,0.0032044,0.0795
-0.04715,0.019989,-0.12436,-0.121,-0.019074,0.02884,0.034028,0.10269
-0.036469,-0.030365,-0.11032,-0.024262,-0.042573,0.03006,0.031891,0.079194
-0.056611,-0.023957,-0.074617,-0.046845,-0.052033,0.033112,0.026093,0.053254
-0.064546,0.013886,-0.055085,-0.15946,0.016022,0.012055,-0.010834,0.015717
-0.048981,0.0038148,-0.042573,-0.087739,0.027619,0.009308,-0.0086976,-0.016327
-0.016938,-0.047761,-0.019989,-0.073701,-0.0068666,0.043488,0.019684,-0.0083925
0.0041199,-0.076143,-0.010834,-0.061799,0.011139,0.01297,0.02121,0.034028
0.014801,-0.084382,-0.012055,-0.039216,0.0099184,0.0032044,0.048371,0.083467
0.05417,-0.10849,-0.0038148,-0.046235,0.023041,0.029145,0.067597,0.085603
0.053864,-0.10697,-0.014496,-0.045014,0.037385,0.032197,0.052338,0.063325
0.023957,-0.10666,-0.0038148,-0.046845,0.049287,0.016327,-0.0019837,-0.032502
0.040131,-0.11398,-0.036774,-0.03769,0.045014,0.0041199,0.0056458,-0.095369
0.038911,-0.085908,-0.076448,-0.083162,0.037079,0.0086976,-0.0035096,-0.098116
-0.043793,-0.0068666,-0.10544,-0.088655,0.034333,-0.0035096,-0.030671,-0.091707
-0.041352,-0.00015259,-0.10483,-0.11063,0.014191,0.024262,0.10605,-0.017548
-0.083467,0.034638,-0.11856,-0.10758,-0.0032044,0.028229,0.18906,0.019989
-0.095979,0.058442,-0.11063,-0.11185,-0.0086976,-0.0010681,0.1326,0.019684
-0.082856,0.053254,-0.10056,-0.084993,-0.032807,-0.010834,0.13107,0.063325
-0.081025,0.058747,-0.076448,-0.091402,-0.018463,-0.048371,-0.54124,0.019074
-0.058137,0.070649,-0.079194,-0.092927,-0.013581,-0.034333,-0.50828,0.025788
-0.045014,-0.0068666,-0.056611,-0.083467,-0.039826,0.042267,0.24521,0.078279
-0.013275,-0.049897,-0.037995,-0.064546,-0.023346,0.036774,-0.035554,0.072175
-0.016938,-0.08072,-0.013886,-0.066682,0.0074769,0.022431,-0.0071717,0.070039
0.025177,-0.1445,0.028534,-0.026703,0.0206,0.020294,0.052949,0.013886
0.043793,-0.14176,-0.0044251,-0.03769,0.048981,0.014191,0.060578,-0.009308
0.050202,-0.11063,-0.026398,-0.066987,0.066072,-0.0013733,0.067903,-0.042573
0.043488,-0.099641,-0.024567,-0.058137,0.052338,0.016022,0.031586,-0.051118
0.025177,-0.088655,-0.0383,-0.05478,0.041352,0.010529,0.012055,-0.064851
-0.0086976,-0.060883,-0.059358,-0.062715,0.034333,0.0065614,0.019684,-0.095064
-0.022736,-0.048981,-0.083467,-0.067597,0.030976,0.0013733,0.013886,-0.060883
-0.049897,-0.045624,-0.10117,-0.091096,0.018158,-0.0013733,0.015412,-0.016632
-0.099336,0.044099,-0.099031,-0.10391,-0.0071717,-0.00076295,0.02182,0.032807
-0.08896,0.027314,-0.078279,-0.103,-0.011444,-0.0047303,0.035248,0.093538
-0.079194,-0.0047303,-0.10605,-0.11124,-0.022126,0.010224,0.058442,0.11276
-0.10117,0.069429,-0.11124,-0.11978,-0.016632,0.031281,0.073396,0.098116
-0.10971,0.083467,-0.094759,-0.12284,-0.02945,0.052644,0.085603,0.082246
-0.081025,0.026398,-0.061799,-0.093233,-0.046845,0.04715,0.088655,0.065766
-0.029145,-0.032502,-0.052338,-0.071565,-0.048371,0.015412,0.03769,0.039216
-0.024872,-0.018463,-0.029755,-0.081636,-0.009308,-0.0010681,0.013581,-0.014801
-0.0053407,-0.058137,-0.014801,-0.048676,0.033417,-0.02884,-0.02884,-0.0383
0.034028,-0.14603,0.028229,0.0044251,0.031586,-0.0016785,-0.066072,0.0032044
0.025177,-0.1149,-0.005951,-0.0206,0.060273,0.0099184,-0.033112,-0.013275
-0.0053407,-0.081331,-0.024872,-0.064546,0.075227,-0.005951,-0.064546,-0.061189
-0.014801,-0.08957,-0.032502,-0.074617,0.036774,0.044404,0.050202,-0.051728
0.014801,-0.11673,-0.048066,-0.062715,0.016938,0.053559,0.096284,-0.00045777
0.06302,-0.14359,-0.056611,-0.056916,0.0099184,0.025177,0.036774,-0.00045777
0.027008,-0.096284,-0.0795,-0.041657,0.011749,-0.017243,-0.009308,-0.047456
-0.002594,0.0013733,-0.086824,-0.10147,0.062104,-0.020294,-0.043793,-0.044404
-0.076753,0.097505,-0.11521,-0.15549,0.066377,-0.0090028,-0.066682,0.0016785
-0.095369,0.10788,-0.1149,-0.13107,-0.024567,-0.077058,-0.056916,0.063325
-0.085298,0.05539,-0.11307,-0.099947,-0.051728,-0.0795,-0.019074,0.073396
-0.065461,0.035248,-0.12619,-0.11124,-0.036774,0.02884,0.030976,0.034028
-0.066072,0.014191,-0.041657,-0.076448,-0.027008,0.016632,0.027924,0.033722
-0.06363,-0.03006,-0.024872,-0.036774,-0.033417,0.05417,0.043793,0.039521
-0.072175,-0.012665,-0.050202,-0.079194,-0.01236,0.058442,0.06302,0.029145
-0.023651,-0.070039,-0.020294,-0.061799,-0.0071717,0.036774,0.063935,0.079194
0.022736,-0.11215,0.0032044,-0.033417,-0.0022889,0.019989,0.021515,0.051728
0.013275,-0.092622,0.002594,0.024872,0.041962,0.0083925,-0.013581,0.0038148
-0.00076295,-0.086519,-0.0074769,-0.044404,0.077363,-0.0019837,-0.01236,-0.012055
-0.00045777,-0.090181,-0.036164,-0.084382,0.056306,0.016022,0.015717,-0.012055
-0.0032044,-0.10025,-0.027924,-0.088655,0.00045777,0.028534,-0.034638,-0.029145
-0.0096132,-0.061799,-0.068208,-0.1146,0.0038148,0.033417,0.0047303,-0.066682
0.0019837,-0.0383,-0.077058,-0.097505,-0.0035096,0.051728,0.097505,-0.023651
0.019379,-0.03769,-0.090181,-0.13291,-0.0047303,0.031281,0.028229,0.0096132
0.0010681,-0.027314,-0.050507,-0.048676,0.022126,-0.037079,-0.1146,-0.033722
-0.040742,0.045319,-0.11307,-0.078584,0.0383,-0.043183,-0.10513,-0.045014
-0.070039,0.063935,-0.11307,-0.10849,0.00045777,-0.011139,0.070344,0.019074
-0.093843,0.019989,-0.084688,-0.078889,-0.029145,0.00015259,0.083772,0.044404
-0.10239,0.021515,-0.094453,-0.082246,-0.012665,0.018158,0.095979,0.070344
-0.08957,0.031891,-0.096895,-0.093538,-0.0068666,0.0083925,0.084077,0.076448
-0.023041,-0.016327,-0.033722,-0.072175,-0.024262,0.0077821,0.037079,0.065461
-0.024872,-0.047761,-0.016022,-0.052949,-0.0090028,-0.018158,-0.25956,0.0080873
-0.0053407,-0.053864,-0.028229,-0.05478,0.014801,0.019989,-0.14572,0.0074769
0.0099184,-0.08957,-0.021515,-0.048371,0.010529,0.056611,0.17533,0.0068666
0.012055,-0.11826,-0.020294,-0.026398,0.023651,0.00045777,0.021515,-0.043183
0.027619,-0.15183,-0.010529,-0.066987,0.043183,-0.013886,0.0050355,-0.051118
0.02182,-0.10178,-0.020294,-0.10727,0.053559,0.0013733,0.023651,-0.048371
0.00045777,-0.074617,-0.034638,-0.051118,0.049897,0.016022,0.017243,-0.035554
-0.0013733,-0.053864,-0.063935,-0.056306,0.042878,0.022126,0.057221,-0.020294
0.011749,-0.0383,-0.076753,-0.0795,0.023041,0.017243,0.10025,0.0090028
-0.034943,-0.00045777,-0.093233,-0.095674,0.012055,0.0077821,0.10391,-0.013275
-0.1387,0.043793,-0.10697,-0.10239,0.0090028,0.00076295,0.079194,-0.0035096
-0.099031,0.027924,-0.12467,-0.1033,0.0010681,-0.015106,-0.32151,0.056306
-0.056611,0.021515,-0.103,-0.085908,-0.023041,0.002594,-0.21103,0.12039
-0.042878,-0.01297,-0.073091,-0.081025,-0.035248,0.020294,0.121,0.098421
-0.078279,0.0383,-0.08011,-0.066377,-0.031281,0.022431,0.071565,0.062104
-0.049287,0.0062562,-0.050813,-0.084382,-0.034943,0.02884,0.07248,0.059358
-0.018769,-0.010834,-0.032807,-0.13474,-0.016327,0.0038148,0.022126,0.055085
-0.0013733,-0.014496,-0.031891,-0.052949,0.0074769,-0.059663,-0.077058,0.028229
0.032197,-0.086519,-0.012055,0.012665,0.016022,-0.020294,-0.082246,-0.0068666
0.039826,-0.10361,-0.029145,-0.051118,0.06424,0.02121,0.095369,-0.023041
0.041352,-0.098421,-0.017853,-0.092317,0.079805,-0.015412,0.012665,-0.041962
0.053254,-0.1561,-0.0099184,-0.080415,0.0041199,0.029145,0.0080873,-0.0035096
0.044099,-0.10178,-0.01297,-0.054475,0.013581,0.040742,0.059358,-0.010529
0.010834,-0.075532,-0.034333,-0.061799,0.029755,0.023957,0.030976,-0.055085
-0.049287,-0.022126,-0.067903,-0.073701,0.023041,0.024262,-0.009308,-0.084382
-0.076143,0.0096132,-0.088655,-0.094759,0.0065614,0.029145,-0.0080873,-0.079805
-0.084077,0.022126,-0.10422,-0.091707,-0.0068666,0.035248,0.039521,-0.040742
-0.094453,0.023957,-0.10941,-0.10239,-0.028229,0.03006,0.042267,0.016022
-0.081941,0.0047303,-0.077058,-0.094759,0.0032044,0.0013733,0.005951,0.078584
-0.10605,0.0047303,-0.069429,-0.050507,0.0047303,-0.0013733,0.014801,0.11582
-0.12039,0.064546,-0.11551,-0.099947,-0.0068666,-0.0035096,0.015412,0.08835
-0.10636,0.054475,-0.089265,-0.10269,-0.021515,0.0050355,0.040436,0.090791
-0.068818,0.013581,-0.061189,-0.089265,-0.026703,0.018158,0.052033,0.098421
-0.025483,-0.025788,-0.0383,-0.085603,-0.013275,0.025483,0.031891,0.063935
0.034333,-0.097505,-0.013886,-0.056306,-0.0032044,0.042878,0.041962,0.050202
0.083772,-0.10636,-0.010529,-0.050202,0.02182,0.045624,0.031891,-0.0047303
0.084382,-0.103,-0.019684,-0.049592,0.037995,-0.0090028,0.010834,-0.062104
0.065156,-0.12985,-0.0074769,-0.045624,0.046845,-0.018769,-0.011139,-0.072786
0.056306,-0.15274,-0.020294,-0.042878,0.034943,0.010529,-0.028534,-0.026703
0.051728,-0.16495,0.014801,-0.013581,0.042267,0.01297,-0.015717,0.0013733
0.0086976,-0.078279,-0.060273,-0.068208,0.06363,-0.0056458,0.0050355,-0.045014
-0.024262,-0.017853,-0.076143,-0.08835,0.055085,-0.015717,-0.029145,-0.067292
-0.075837,0.018158,-0.090181,-0.095369,0.014801,-0.005951,-0.036469,-0.035859
-0.10941,0.03006,-0.11337,-0.096284,0.0010681,-0.015717,-0.033112,-0.026703
-0.13748,0.049592,-0.11276,-0.068208,-0.019379,-0.028229,-0.13077,-0.0383
-0.14481,0.12131,-0.13077,-0.20279,-0.017548,-0.019989,-0.064546,-0.018769
-0.10788,0.062715,-0.11032,-0.10758,-0.029145,0.0086976,0.11612,0.090486
-0.072175,0.04593,-0.094148,-0.093233,-0.040436,0.025177,0.12772,0.11826
-0.060578,0.026398,-0.038605,-0.084382,-0.0086976,0.024567,0.074311,0.11398
0.020905,-0.034638,-0.019684,-0.038605,-0.016632,0.03006,0.076143,0.086213
0.027924,-0.034333,-0.05417,-0.074617,-0.002594,0.029145,0.082551,0.035554
0.0019837,-0.078584,-0.0022889,-0.055695,0.0071717,0.022736,0.076753,0.027314
0.0071717,-0.1149,-0.0016785,-0.045624,0.005951,0.016938,-0.021515,-0.018463
0.031586,-0.18235,0.0099184,-0.028534,0.017548,-0.0013733,-0.18326,-0.012055
0.02182,-0.12985,-0.005951,-0.057221,0.031281,-0.0028992,-0.057527,-0.086213
0.053864,-0.10239,-0.056916,-0.054475,0.039521,0.010224,0.017243,-0.10849
0.031586,-0.11246,-0.041047,-0.089876,0.039216,0.044709,0.010834,-0.07126
0.0096132,-0.0795,-0.065766,-0.11093,0.039521,0.024567,-0.0022889,-0.042878
-0.0090028,-0.050813,-0.052644,-0.023651,0.046845,0.00076295,-0.010834,-0.064851
-0.095979,0.051118,-0.11948,-0.087739,0.052949,-0.027924,-0.010224,-0.051728
-0.11002,0.08011,-0.11551,-0.11582,0.036164,-0.056611,-0.027314,0.0071717
-0.10056,0.08072,-0.12284,-0.12314,-0.023041,-0.0062562,0.044099,0.086824
-0.0972,0.058747,-0.068513,-0.1091,-0.045624,0.0068666,0.062409,0.10056
-0.10117,0.050202,-0.1091,-0.10269,-0.041962,-0.010224,-0.01236,0.092012
-0.076143,0.02945,-0.08896,-0.081636,-0.042878,0.034943,0.01297,0.096284
-0.019379,-0.043488,-0.059358,-0.091402,-0.041657,0.046845,0.024872,0.10971
-0.033112,-0.065461,-0.085298,-0.10575,-0.018463,0.03006,0.011444,0.083467
0.0032044,-0.15793,0.011749,-0.051728,-0.013275,0.050202,0.06302,0.063325
0.041657,-0.19028,0.05417,-0.0068666,0.015106,0.029145,0.016632,0.042878
0.040436,-0.1503,-0.0044251,-0.024567,0.045014,0.010834,-0.0080873,-0.0056458
0.042878,-0.081331,-0.023651,-0.035554,0.051118,0.0047303,0.0065614,-0.031891
0.037079,-0.084993,-0.018158,-0.036164,0.041962,0.010224,0.015106,-0.052033
0.032197,-0.082856,-0.036469,-0.044709,0.039521,0.026093,0.041962,-0.050507
-0.0041199,-0.046845,-0.052033,-0.077668,0.048371,0.01236,-0.0068666,-0.068208
-0.033722,-0.00015259,-0.076448,-0.090486,0.043793,-0.023651,-0.033112,-0.081636
-0.015106,0.0056458,-0.084688,-0.092317,0.025788,-0.099336,-0.038911,-0.041657
-0.045014,0.031281,-0.10422,-0.10697,0.016632,-0.032807,-0.099031,-0.039216
-0.081636,0.060273,-0.10666,-0.10575,-0.0086976,0.030976,-0.028229,-0.051423
-0.10025,0.066072,-0.10697,-0.11093,-0.02121,0.017243,0.02884,-0.010529
-0.081331,0.040742,-0.10269,-0.11307,-0.030976,0.018769,0.040131,0.041962
-0.074617,0.033112,-0.086519,-0.11582,-0.042573,0.023346,0.050507,0.087434
-0.094453,0.03769,-0.087434,-0.090791,-0.04654,0.032502,0.099031,0.12528
-0.061494,-0.012665,-0.050813,-0.070954,-0.025788,0.044709,0.25711,0.13199
-0.039216,-0.050202,-0.032807,-0.076448,-0.014191,0.05478,0.28458,0.10452
0.0077821,-0.094453,-0.0068666,-0.076753,0.009308,0.037995,0.30625,0.052033
0.017548,-0.12009,0.0019837,-0.060273,0.030365,0.0022889,-0.086824,-0.019684
0.035248,-0.12802,-0.0053407,-0.016327,0.048371,-0.052338,-0.83452,-0.073701
0.022736,-0.10422,-0.013886,-0.052338,0.047761,-0.060578,-0.28733,-0.01236
0.026093,-0.11612,-0.030365,-0.066377,0.041962,-0.013275,-0.19699,-0.034333
0.024262,-0.084993,-0.035554,-0.060578,0.023041,0.070954,0.19272,-0.065461
-0.019074,-0.044709,-0.05417,-0.048981,0.019074,0.044709,0.25711,-0.031281
-0.051423,-0.022431,-0.066072,-0.057221,0.051423,-0.0038148,0.11398,-0.01297
-0.038911,-0.015412,-0.088655,-0.068208,0.041352,-0.0099184,-0.019074,-0.01236
-0.044404,0.013275,-0.1146,-0.096284,0.030365,0.0041199,-0.03769,0.0056458
-0.061799,0.033112,-0.10758,-0.1091,0.017243,0.01236,0.041047,-0.0019837
-0.077058,0.036469,-0.11704,-0.10575,-0.031281,0.019074,0.017548,0.045319
-0.056916,0.010529,-0.084077,-0.10666,-0.055085,0.0080873,0.02884,0.07126
-0.041657,-0.0028992,-0.053864,-0.103,-0.05478,-0.0032044,0.016632,0.058137
-0.062104,0.029755,-0.042878,-0.093538,-0.026398,-0.031891,0.024262,0.044404
-0.054475,0.025788,-0.067903,-0.0972,-0.0022889,-0.018769,0.16892,0.06302
-0.029145,-0.01297,-0.052949,-0.082856,-0.019379,0.022431,0.2327,0.071565
0.0096132,-0.08072,-0.025483,-0.070344,-0.009308,0.046235,0.262,0.065766
0.012665,-0.11612,-0.0041199,-0.049592,0.0096132,0.017243,-0.14603,0.0019837
-0.024567,-0.15976,0.0071717,0.0071717,0.010834,-0.011749,-0.82414,-0.058137
-0.013581,-0.15274,0.050202,-0.00076295,0.025177,0.042878,0.10422,-0.0028992
0.0041199,-0.12558,-0.048371,-0.096895,0.098421,0.042573,0.2327,-0.041047
0.026093,-0.08835,-0.046845,-0.087434,0.08072,0.041047,0.067903,-0.0795
0.02121,-0.055695,-0.076448,-0.073701,0.030976,-0.0010681,0.13474,-0.040742
-0.010224,-0.019989,-0.081941,-0.076753,0.034333,-0.024262,0.032807,-0.034943
-0.040436,0.010224,-0.0972,-0.10971,0.011139,0.017243,0.18967,-0.029755
-0.06363,0.052033,-0.11429,-0.10849,0.0028992,-0.00015259,0.033722,-0.014801
-0.077058,0.068513,-0.11307,-0.10971,-0.018769,-0.013275,-0.42161,-0.014191
-0.11582,0.0795,-0.11276,-0.1033,-0.04654,0.026703,-0.033112,0.046235
-0.091402,0.040131,-0.097505,-0.10575,-0.052949,0.039521,0.13931,0.076753
-0.039216,-0.023957,-0.043183,-0.070954,-0.046845,0.019989,0.041352,0.073396
0.0035096,-0.02884,-0.055695,-0.066377,0.00076295,-0.019684,0.023041,0.041962
0.016938,-0.042573,-0.066377,-0.061189,0.012665,-0.02884,0.012665,0.024872
0.040436,-0.084993,-0.014191,-0.042878,0.0038148,-0.0056458,0.011139,0.0047303
0.041047,-0.067903,-0.0074769,-0.040131,0.024262,-0.0010681,-0.0065614,-0.015717
0.032807,-0.074006,-0.01236,-0.061494,0.029755,-0.00015259,-0.019074,-0.00015259
0.0086976,-0.10544,-0.0074769,-0.047456,0.03006,0.0022889,0.0038148,-0.018158
-0.0074769,-0.11429,-0.019074,-0.047456,0.041657,0.014496,0.010529,-0.033417
-0.037079,-0.067903,-0.039826,-0.05417,0.051118,0.019379,0.024872,-0.037385
-0.020294,-0.06424,-0.030365,-0.032197,0.045014,0.018158,0.041352,-0.0086976
-0.039826,-0.029755,-0.07126,-0.11887,0.049897,0.012665,0.051423,0.030976
-0.059052,0.015717,-0.084382,-0.10941,0.02945,0.0080873,0.042878,0.031891
-0.08011,0.03006,-0.11154,-0.089265,-0.017548,0.018463,0.04654,-0.0032044
-0.091402,0.029145,-0.12131,-0.10666,-0.023041,-0.0071717,-0.077974,-0.0083925
-0.10056,0.023957,-0.10666,-0.094759,-0.030365,-0.00076295,-0.064851,0.009308
-0.095064,-0.050507,-0.047761,-0.077668,-0.024872,0.0206,0.06302,0.0071717
-0.12436,0.019379,-0.099336,-0.099641,-0.019684,0.016327,0.045014,-0.011139
-0.14084,0.076448,-0.091402,-0.0972,-0.034638,0.022431,0.036774,0.011139
-0.071565,0.023651,-0.056611,-0.081331,-0.023041,0.018769,0.045319,0.055085
-0.025788,-0.005951,-0.046235,-0.09659,0.0080873,0.0013733,0.017243,0.055085
0.045014,-0.066987,-0.018463,-0.057221,0.0077821,0.005951,0.002594,0.0795
0.090486,-0.13077,0.011749,-0.036164,0.0035096,0.024567,0.017853,0.11093
0.10666,-0.16068,0.027314,-0.0013733,0.02945,0.0083925,0.0071717,0.073396
0.059663,-0.12467,-0.0206,-0.051118,0.077363,-0.017243,-0.026398,0.041047
0.026703,-0.14267,-0.034638,-0.071565,0.063325,0.011139,-0.0044251,-0.024262
0.0071717,-0.11154,-0.036164,-0.058137,0.03006,0.023041,-0.0083925,-0.051728
-0.00015259,-0.11582,-0.061799,-0.069429,0.037079,-0.0086976,-0.017548,-0.057832
-0.0206,-0.012665,-0.064851,-0.06363,0.02884,-0.016327,-0.017243,-0.083772
-0.043488,0.054475,-0.0795,-0.090486,0.024872,-0.016327,-0.017243,-0.061799
-0.043793,0.056611,-0.084382,-0.13687,-0.011139,0.0047303,-0.0028992,-0.057832
-0.08011,0.10605,-0.12985,-0.1091,-0.032807,0.027008,0.0096132,-0.051118
-0.073701,0.10513,-0.10422,-0.079805,-0.019074,0.016632,0.011139,0.0071717
-0.065461,0.028534,-0.12558,-0.10575,-0.028229,0.023346,-0.00076295,0.017243
-0.066072,0.031281,-0.11368,-0.12741,-0.0383,0.019989,0.02121,0.069429
-0.04715,0.0032044,-0.070344,-0.10849,-0.056916,0.049592,0.050202,0.11917
-0.033112,-0.093843,-0.037079,-0.043488,-0.036469,0.045014,0.027924,0.091402
-0.018769,-0.11368,-0.027924,-0.041657,0.0016785,0.0071717,0.0099184,0.043183
-0.015717,-0.07248,-0.031586,-0.070954,0.035859,-0.039216,0.0050355,0.013581
0.0074769,-0.084382,-0.0086976,-0.051118,0.042267,-0.021515,0.026703,0.00045777
0.016938,-0.10758,-0.013886,-0.085298,0.032807,0.015412,-0.00045777,-0.015717
0.034943,-0.121,0.010529,0.0068666,0.023041,0.0080873,-0.018463,-0.0050355
0.035859,-0.12161,0.026093,-0.045624,0.027008,0.025177,0.035248,-0.0096132
0.029145,-0.13596,0.0019837,-0.078279,0.059663,-0.011749,0.015412,-0.051118
0.037385,-0.060883,-0.074922,-0.046845,0.057221,-0.010834,0.0086976,-0.065766
-0.0090028,0.012055,-0.092012,-0.089876,0.039826,-0.0056458,-0.033112,-0.0071717
-0.029755,0.019684,-0.10361,-0.098421,0.02182,0.013275,-0.049287,0.043488
-0.064851,0.023957,-0.10697,-0.10239,-0.014801,0.041657,0.049897,0.053254
-0.085298,0.019379,-0.10971,-0.103,-0.020294,0.014496,0.051423,0.056611
-0.10239,0.02182,-0.11063,-0.11307,-0.030976,-0.0028992,-0.00045777,0.049897
-0.1146,0.0019837,-0.086213,-0.11093,-0.023346,0.002594,-0.002594,0.013886
-0.095979,0.022736,-0.094759,-0.09781,-0.026398,0.019074,-0.015106,0.0068666
-0.10544,0.052644,-0.070649,-0.091096,-0.028534,0.010224,-0.057527,0.0074769
-0.067903,0.002594,-0.052033,-0.068208,-0.031586,0.013886,0.034943,0.036164
-0.046845,-0.070039,0.022736,-0.040436,-0.0050355,-0.07187,0.032807,0.039521
0.013581,-0.12161,-0.060578,-0.056916,0.019684,0.0013733,0.0096132,0.024872
0.022126,-0.11368,-0.010529,-0.063325,0.033417,0.050202,0.0016785,0.031586
0.032197,-0.08835,0.0019837,-0.049592,0.035248,0.037385,-0.012665,-0.022736
0.072175,-0.13016,0.011444,-0.023041,0.023651,0.045624,0.094759,-0.039216
0.048981,-0.085603,-0.030976,-0.051423,0.051728,0.0013733,0.10819,-0.043488
0.029145,-0.067597,-0.04715,-0.055695,0.071565,-0.0077821,0.095674,-0.063325
-0.028534,-0.025788,-0.072786,-0.072786,0.048066,-0.010834,0.063325,-0.05539
-0.05478,-0.013581,-0.079194,-0.086824,0.018769,-0.030365,-0.22477,-0.038605
-0.058137,0.013581,-0.099031,-0.10452,-0.0028992,0.01297,-0.11185,0.0096132
-0.08011,0.034028,-0.12467,-0.13352,-0.013275,0.0044251,-0.0056458,0.036164
-0.099947,0.082551,-0.12497,-0.11063,-0.039216,-0.0056458,-0.040742,0.022736
-0.1268,0.095674,-0.0972,-0.1146,-0.018463,0.0071717,0.070344,0.036164
-0.081636,0.051118,-0.088655,-0.09781,-0.0035096,0.00045777,0.023346,0.065461
-0.052949,0.031586,-0.084993,-0.09659,-0.0383,0.048676,0.069429,0.11368
-0.015717,-0.037995,-0.059358,-0.087129,-0.022431,0.028534,0.056611,0.16129
0.00045777,-0.10788,-0.033722,-0.06363,-0.012055,0.0062562,0.019379,0.14542
0.011444,-0.15244,-0.0035096,-0.045624,-0.0056458,0.039521,0.026703,0.051423
0.027008,-0.14206,0.02884,-0.020294,0.016632,0.043183,0.10239,-0.0050355
0.0050355,-0.081941,-0.015412,-0.056306,0.045319,0.0044251,-0.043488,-0.048371
0.002594,-0.081636,-0.0041199,-0.062409,0.033112,0.019989,-0.037385,-0.08896
0.0086976,-0.10391,-0.019074,-0.048981,0.034028,0.022126,0.068513,-0.10971
0.018769,-0.10636,-0.026398,-0.037385,0.046235,-0.00015259,-0.0044251,-0.11551
0.026703,-0.1149,0.0038148,-0.02121,0.057832,-0.0062562,-0.018769,-0.0795
-0.015412,-0.023346,-0.0972,-0.077058,0.059358,-0.026398,-0.009308,-0.034943
-0.041657,0.02182,-0.11124,-0.10239,0.039216,-0.014191,0.11215,-0.018158
-0.064546,0.044709,-0.1146,-0.10269,-0.0019837,-0.0022889,0.20279,-0.015106
-0.085298,0.058137,-0.11704,-0.094453,-0.028229,-0.005951,0.16861,-0.00045777
-0.052644,0.037079,-0.10727,-0.10727,-0.033417,0.0050355,0.095979,0.048981
-0.059052,0.047456,-0.10086,-0.1207,-0.02884,-0.027619,-0.67765,0.0206
-0.07187,0.033722,-0.10697,-0.15915,-0.032197,-0.0074769,-0.47562,0.06363
-0.073396,0.012055,-0.070344,-0.10727,-0.019684,0.031586,0.25986,0.096284
-0.069734,-0.009308,-0.043183,-0.049592,-0.017548,0.021515,0.12009,0.058442
-0.039216,-0.045624,-0.039826,-0.06302,-0.021515,0.02884,0.10575,0.081941
-0.018769,-0.078584,-0.018769,-0.061494,-0.015412,0.023957,0.11826,0.057832
-0.0050355,-0.098726,0.0053407,-0.051423,-0.0050355,0.02121,0.083467,0.05539
0.045319,-0.14023,0.019684,-0.0083925,0.031586,0.022736,0.034333,0.036164
0.081636,-0.13199,-0.0047303,-0.034943,0.059663,0.0028992,0.027314,-0.016938
0.048981,-0.098116,-0.038911,-0.055695,0.067292,-0.0068666,-0.0074769,-0.0972
0.031281,-0.099641,-0.032197,-0.052338,0.047456,0.012055,0.0096132,-0.0972
-0.0028992,-0.059663,-0.062409,-0.060578,0.041962,0.012055,0.0065614,-0.072175
-0.020294,-0.031586,-0.085298,-0.08957,0.032197,-0.005951,-0.016632,-0.044709
-0.070954,-0.0083925,-0.090791,-0.11093,0.019379,-0.015412,-0.019379,-0.014191
-0.11124,0.019379,-0.10819,-0.11398,0.015106,-0.0086976,-0.0083925,0.011749
-0.096284,0.022431,-0.081941,-0.10971,-0.027314,0.024567,0.056001,0.025788
-0.065461,0.031281,-0.10849,-0.10178,-0.027619,0.015412,0.045624,0.056306
-0.027314,0.050507,-0.10147,-0.10391,-0.055695,-0.020905,0.010529,0.034943
-0.0074769,0.053864,-0.093233,-0.032197,-0.069123,-0.042878,0.049287,0.040436
-0.040436,0.019989,-0.055085,-0.10147,0.027924,0.010529,0.069734,0.018158
-0.057527,-0.016327,-0.046845,-0.075227,0.027924,0.082551,0.075532,0.011139
-0.057527,-0.047456,-0.029755,-0.13931,-0.023041,0.036469,-0.026398,0.053559
-0.035554,-0.10483,-0.011749,-0.083772,0.027924,-0.025788,-0.39933,0.026703
-0.011444,-0.15335,-0.0028992,-0.041047,0.042267,-0.01297,-0.15,0.013275
-0.040436,-0.084382,-0.014496,-0.046845,0.056001,0.0080873,0.11429,-0.024567
-0.030671,-0.078279,-0.0383,-0.063325,0.041962,0.0086976,0.041352,-0.035859
-0.024567,-0.06424,-0.038911,-0.057527,0.016938,0.011444,0.1207,0.032807
-0.025788,-0.082856,-0.028229,-0.051118,0.022126,0.042573,0.13474,0.041962
0.0071717,-0.055695,-0.059052,-0.062715,0.025177,0.052644,0.10178,0.031891
-0.014191,-0.043793,-0.063935,-0.069123,0.0206,0.00045777,0.039216,-0.022431
-0.022126,-0.020294,-0.077974,-0.026703,-0.0013733,0.033112,0.031891,-0.010834
-0.016632,0.0019837,-0.082246,-0.048676,0.0028992,0.032807,0.040131,-0.023346
-0.051118,0.050202,-0.121,-0.093233,0.0086976,-0.009308,0.0038148,-0.033417
-0.082856,0.062104,-0.13565,-0.13962,0.0041199,-0.0050355,-0.017548,-0.0074769
-0.055085,0.04715,-0.10513,-0.12436,-0.035554,0.013886,-0.01236,0.032807
-0.066987,0.035859,-0.078279,-0.10575,-0.041657,0.011444,-0.010834,0.088655
-0.060883,-0.01297,-0.050507,-0.091096,-0.043488,-0.0032044,-0.0096132,0.121
-0.027619,-0.044709,-0.029755,-0.069734,-0.0383,0.002594,0.017243,0.13718
-0.0041199,-0.07248,-0.005951,-0.05417,-0.012665,0.00045777,0.024262,0.08072
0.014801,-0.13138,0.0077821,-0.051423,0.014801,0.0028992,0.035248,0.014191
0.036774,-0.14267,0.0056458,-0.052949,0.039216,0.016022,0.056306,-0.022736
0.048371,-0.13565,-0.013581,-0.026703,0.039521,0.020905,0.036774,-0.030365
0.060578,-0.11185,-0.036469,-0.048981,0.044404,0.017243,0.027924,-0.074922
0.067292,-0.081941,-0.018158,-0.060273,0.062104,0.0013733,-0.030671,-0.0972
0.073396,-0.062409,-0.051728,-0.078584,0.05539,0.0065614,-0.062715,-0.087739
0.038911,-0.054475,-0.06424,-0.07248,0.037385,0.011139,-0.036469,-0.11582
0.0016785,-0.034333,-0.096895,-0.08957,0.024262,-0.022126,-0.085908,-0.081331
-0.04593,0.012055,-0.10849,-0.099031,0.0099184,-0.010224,-0.02945,-0.066682
-0.12772,0.048371,-0.11856,-0.11032,-0.014191,0.010224,0.045624,-0.024262
-0.11337,0.040131,-0.11734,-0.10452,-0.016327,0.010529,0.045014,0.049287
-0.10422,0.059663,-0.098726,-0.09781,-0.012665,-0.0071717,0.023957,0.060273
