0.027619,-0.14481,0.021515,-0.037385,0.066377,-0.0032044,0.027008,-0.056916
0.012665,-0.12039,-0.023651,-0.045014,0.073091,0.01236,0.053559,-0.057221
-0.016632,-0.084382,-0.032807,-0.087434,0.065156,0.020294,0.079805,-0.032807
-0.020294,-0.087739,-0.046235,-0.027314,0.03769,0.035554,0.10086,-0.01297
-0.039216,-0.023346,-0.088045,-0.073091,0.052033,0.027314,0.12894,-0.017243
-0.04715,-0.00076295,-0.1033,-0.062409,0.048371,0.0086976,0.11887,-0.010224
-0.060578,0.04593,-0.12497,-0.13504,0.023957,-0.0032044,-0.031281,0.031281
-0.088045,0.08835,-0.1326,-0.15366,0.011749,-0.0038148,-0.23087,0.022736
-0.11002,0.068513,-0.11276,-0.05478,-0.0071717,0.0010681,-0.067292,0.0086976
-0.093233,0.051728,-0.10971,-0.13077,-0.059663,0.043183,0.1442,0.085908
-0.081941,0.016632,-0.103,-0.048371,-0.16464,0.043183,-0.02945,0.13443
-0.031281,0.0062562,-0.077974,-0.095674,-0.14572,-0.012665,-0.15305,0.10178
-0.016327,-0.032807,-0.027924,-0.15061,0.031891,-0.016022,0.06363,0.066377
0.028229,-0.081331,-0.0080873,-0.046845,0.029145,0.051423,0.12833,0.048371
0.032197,-0.062409,-0.0096132,-0.0050355,0.028229,0.029145,0.047456,-0.0083925
0.04715,-0.12985,0.022126,-0.073701,0.056306,0.014191,0.037079,-0.039826
0.051118,-0.168,0.015412,-0.14359,0.026093,0.018769,0.027314,-0.038911
0.04715,-0.15671,0.015412,0.0050355,0.014191,0.011444,-0.010224,-0.072175
0.040436,-0.13016,-0.017548,-0.024567,0.058137,0.010224,-0.014496,-0.073396
0.020905,-0.12284,-0.052949,0.015106,0.070039,-0.014801,-0.025483,-0.096895
-0.032502,-0.031891,-0.11063,-0.081331,0.075837,-0.019684,-0.0074769,-0.071565
-0.057221,0.025788,-0.08072,-0.14878,0.070344,0.026398,0.060273,-0.0050355
-0.095979,0.037079,-0.090791,-0.11795,-0.024262,0.025177,0.07126,-0.012055
-0.078889,0.020294,-0.10544,-0.053559,-0.024262,0.0099184,0.059052,0.01297
-0.084382,0.054475,-0.11215,-0.043183,-0.022126,0.024872,0.07126,0.052033
-0.14145,0.12009,-0.13382,-0.1973,-0.0090028,0.039521,0.02884,0.049897
-0.1091,0.058442,-0.14237,-0.19059,-0.015412,0.0080873,0.017548,0.067597
-0.076143,0.045624,-0.094453,-0.077058,-0.051423,-0.060578,0.019074,0.075837
-0.075227,0.0032044,-0.048066,-0.070344,-0.026398,-0.08011,-0.0047303,0.039826
-0.039521,-0.094148,-0.0074769,-0.0028992,-0.009308,-0.0038148,0.024262,0.071565
0.017243,-0.16587,0.015412,-0.067292,0.050507,-0.0090028,-0.04654,0.12467
0.06424,-0.20157,0.037385,-0.042267,-0.016632,0.10086,-0.063935,0.091402
0.0795,-0.10666,-0.014496,-0.022431,-0.059358,0.11551,0.040131,0.030365
0.053864,-0.07248,-0.0047303,0.00076295,0.032197,0.010834,0.057221,-0.049897
0.043488,-0.072175,-0.027619,-0.070649,0.060273,-0.010224,-0.029145,-0.103
0.025788,-0.067597,-0.025483,-0.16678,0.0090028,0.030365,-0.16861,-0.095369
-0.0074769,-0.044404,-0.056916,0.037995,0.0047303,0.018158,-0.14023,-0.098421
-0.017548,-0.049897,-0.06302,-0.096895,0.086519,0.015412,0.054475,-0.058747
-0.014191,-0.048371,-0.067292,-0.043488,0.10666,-0.016022,0.06363,-0.015717
-0.077974,0.087129,-0.16159,-0.082856,0.037079,-0.027008,0.013275,-0.0080873
-0.077974,0.031891,-0.11215,-0.13596,-0.035554,0.045319,0.10208,0.049592
-0.093233,0.062104,-0.16495,-0.20615,-0.02121,0.025483,0.10269,0.081331
-0.11337,0.066682,-0.11246,-0.12161,0.056306,-0.034943,0.068208,0.027924
-0.10605,0.053559,-0.088045,-0.0795,-0.033722,0.019074,0.053864,0.062409
-0.10941,0.056611,-0.075227,-0.026093,-0.036469,0.002594,0.0099184,0.091707
-0.070649,-0.046845,-0.020905,0.009308,-0.024567,-0.017548,-0.030365,0.061494
-0.0032044,-0.13046,-0.015412,-0.13138,-0.015106,-0.027314,-0.095674,0.029145
-0.027314,-0.016022,-0.042573,-0.18387,0.027314,-0.005951,-0.07187,0.002594
0.0099184,-0.048676,-0.0062562,-0.091707,-0.02945,0.046235,0.014801,0.01297
0.03769,-0.087434,0.012055,-0.041047,-0.033417,0.049592,0.08072,0.010834
0.06302,-0.13199,0.056916,0.0050355,0.0056458,0.039216,0.065461,-0.022431
0.050202,-0.20096,0.037995,-0.0206,0.041047,0.029145,0.028229,-0.067292
0.053864,-0.21958,-0.0206,-0.010224,0.066072,0.0071717,0.024262,-0.076143
0.028229,-0.15183,-0.049287,-0.048371,0.053254,0.0019837,0.014801,-0.059052
-0.002594,-0.048066,-0.091402,-0.085908,0.052949,-0.016327,0.0047303,-0.067903
-0.029145,0.022431,-0.14542,-0.077058,0.035554,-0.019074,-0.01236,-0.051423
-0.073091,0.13169,-0.15274,-0.12894,0.018769,-0.012055,-0.0032044,-0.0050355
-0.087129,0.11643,-0.12253,-0.08896,-0.018158,-0.0010681,-0.0050355,0.058442
-0.092317,0.066682,-0.11429,-0.11307,-0.02884,0.0019837,-0.019074,0.074311
-0.093233,0.04715,-0.11215,-0.12558,-0.014496,0.00076295,0.019074,0.077974
-0.083467,0.013886,-0.10117,-0.077668,-0.033722,0.0071717,0.049897,0.091707
-0.07187,-0.0062562,-0.078584,-0.095674,-0.022126,-0.015412,0.042878,0.093843
-0.035554,-0.062104,-0.048066,-0.097505,-0.0041199,0.0038148,0.034333,0.090486
-0.0041199,-0.08072,-0.019684,-0.07248,-0.0086976,0.027008,0.028229,0.075532
0.00045777,-0.042573,0.015717,-0.039521,0.0032044,0.027314,0.023957,0.028229
0.025788,-0.099641,0.042878,-0.0062562,0.011444,0.045319,0.037995,0.015717
0.019684,-0.13748,0.036774,-0.056611,0.056001,0.02884,0.050202,-0.014191
0.0086976,-0.11093,-0.005951,-0.069734,0.06302,0.028534,0.033417,-0.036469
0.01297,-0.103,-0.033722,-0.034638,0.016632,0.048371,0.04654,-0.025483
0.002594,-0.059358,-0.041657,-0.091402,0.041962,0.019989,0.046235,-0.049287
-0.024567,-0.025483,-0.07126,-0.095369,0.040131,0.002594,0.039826,-0.037079
-0.017548,-0.024567,-0.094148,-0.06302,0.024262,0.0019837,0.0086976,-0.05478
-0.042573,0.0041199,-0.12436,-0.087129,0.0206,-0.0019837,-0.05539,-0.061189
-0.048981,0.028534,-0.11551,-0.13931,0.012665,-0.012055,-0.098421,-0.043793
-0.067597,0.023651,-0.103,-0.10178,-0.042878,-0.0090028,-0.056916,-0.0071717
-0.077058,0.059358,-0.13382,-0.024872,-0.043488,-0.018769,-0.020905,0.049897
-0.051728,0.041657,-0.091402,-0.042573,0.019074,-0.036469,0.0035096,0.079194
-0.065461,-0.024872,-0.10117,-0.12039,0.0077821,0.0080873,0.095674,0.085603
-0.051728,-0.050202,-0.049287,-0.19913,0.039216,0.016632,0.085908,0.053254
0.012665,-0.10636,-0.026703,-0.078584,-0.038911,0.025177,-0.00076295,0.012665
0.027314,-0.074922,0.0053407,-0.070649,-0.051728,-0.029755,-0.28336,-0.029145
0.013581,-0.023346,0.010529,-0.070954,-0.0050355,-0.013275,-0.23575,-0.031891
-0.020294,-0.023346,0.0022889,-0.027619,-0.013275,0.061494,0.094148,0.038911
-0.0096132,-0.033417,-0.017853,-0.0010681,0.0035096,0.05478,0.082551,0.016938
0.0013733,-0.041657,-0.0083925,-0.015412,0.055085,0.0090028,0.092622,-0.011444
-0.0071717,-0.10666,0.0053407,-0.056611,0.11948,-0.023346,0.073396,-0.041352
-0.029755,-0.095979,-0.060578,-0.10788,0.062409,0.012665,0.034333,-0.035859
-0.023651,-0.072175,-0.066987,-0.12772,0.011444,0.019989,0.078279,-0.0068666
-0.040436,-0.022736,-0.11704,-0.081331,-0.023041,0.023346,0.075227,0.0053407
-0.045319,-0.019379,-0.11124,-0.0047303,-0.010834,0.016022,0.051728,0.044099
-0.047761,0.0086976,-0.12924,-0.066682,0.043488,0.018158,0.074006,0.078279
-0.076143,0.055085,-0.13626,-0.21714,0.019684,0.00045777,0.036164,0.030365
-0.06363,0.0010681,-0.084993,-0.16098,-0.056916,-0.018158,-0.022431,0.041962
-0.05478,0.0041199,-0.086824,-0.072175,-0.077668,0.00015259,-0.038605,0.035554
-0.081941,0.040436,-0.065156,-0.055695,-0.053864,0.016327,0.072786,0.019074
-0.079805,0.015412,-0.026703,-0.03769,-0.0062562,0.025483,0.11063,0.033417
-0.045624,-0.057832,0.0041199,-0.010529,0.034333,0.026703,-0.065461,0.052033
-0.015106,-0.094148,-0.059052,-0.086519,0.070039,-0.016022,-0.26902,0.013886
0.0080873,-0.090791,-0.00076295,-0.067292,0.069123,-0.023346,-0.035554,-0.010834
0.017548,-0.081331,0.019989,-0.026093,0.011139,0.053254,0.12192,0.022736
0.033722,-0.060273,0.00076295,-0.052338,0.033112,0.036774,0.056306,-0.00045777
0.023346,-0.092317,-0.025788,-0.12772,0.044099,0.00015259,-0.018158,-0.039216
0.031586,-0.15061,0.010834,-0.092927,0.037079,0.0053407,-0.10056,-0.015106
-0.0019837,-0.061494,-0.05417,0.2739,0.040131,0.011444,-0.050507,0.0035096
-0.041352,0.0047303,-0.0972,-0.24826,0.0053407,0.0083925,0.012055,-0.0032044
-0.048981,-0.016327,-0.08072,-0.20066,-0.033417,0.0028992,0.051118,0.029755
-0.04654,0.0044251,-0.14084,-0.066987,0.027924,-0.0080873,0.058442,0.018158
-0.045014,0.053254,-0.15244,-0.11582,0.037995,0.049592,0.093538,-0.0041199
-0.031891,0.015106,-0.18692,-0.074617,-0.014191,-0.0090028,0.13443,-0.023346
-0.058137,0.015106,-0.082551,-0.074311,-0.0056458,-0.037079,0.036164,-0.024567
-0.06363,0.026398,-0.095979,-0.14328,-0.020905,-0.010834,-0.065156,0.031586
-0.039521,-0.034028,-0.0099184,-0.043488,-0.070954,0.031586,-0.04593,0.051728
-0.072175,0.023651,-0.045624,-0.14054,-0.024872,0.010224,-0.0068666,0.01297
-0.056916,-0.01236,-0.03006,-0.019379,-0.023041,0.02945,0.10391,0.053864
-0.01297,-0.056611,-0.024262,-0.032502,-0.093538,0.065156,0.13199,0.072786
0.0065614,-0.10269,0.0206,-0.09781,0.046235,0.0086976,0.10025,0.031891
0.010834,-0.14572,0.04593,-0.046845,0.070344,0.0038148,0.047456,-0.02945
0.025177,-0.1564,0.022431,-0.016022,0.036774,0.0028992,-0.077363,-0.03769
0.049592,-0.14664,0.024567,-0.052949,0.069429,-0.013886,-0.26078,-0.020294
0.061494,-0.16007,-0.024567,-0.039216,0.031586,0.011139,-0.11337,-0.039216
0.002594,-0.016022,-0.11276,-0.040436,0.048981,-0.00015259,0.064546,-0.050813
-0.042878,0.082551,-0.11948,-0.0090028,0.10605,-0.023651,0.02945,-0.039826
-0.049897,0.051118,-0.13443,-0.17807,0.0795,0.045014,0.059663,0.0032044
-0.09781,0.093843,-0.1564,-0.23178,0.0047303,0.034638,0.052949,-0.023346
-0.065156,-0.034028,-0.064851,-0.056916,-0.10758,0.030976,0.066072,0.036774
-0.072786,-0.059968,-0.092927,-0.05539,-0.063935,0.0062562,0.052338,0.065766
-0.092317,-0.053559,-0.12863,-0.14786,0.010834,-0.031281,0.0047303,0.030365
-0.067903,-0.038605,-0.08896,-0.093233,-0.043488,0.0080873,-0.060883,0.059052
-0.070039,0.061799,-0.070649,-0.076448,-0.040436,0.035248,0.010834,0.08072
-0.066987,0.057221,-0.037079,-0.096895,-0.01297,0.02121,0.095979,0.075532
-0.043488,0.0071717,-0.016632,-0.079805,-0.025483,0.0041199,0.042267,0.066377
0.025788,-0.06363,0.016327,-0.055085,-0.049287,0.032502,0.033417,0.052949
0.056306,-0.1088,0.059052,-0.0083925,-0.019684,0.026703,0.020294,-0.00015259
0.05539,-0.18845,0.052338,0.029755,0.059968,-0.016022,-0.0041199,-0.06302
0.03006,-0.16159,-0.030365,-0.030976,0.10575,-0.02182,-0.073701,-0.099336
0.052033,-0.14054,-0.023651,-0.15671,0.13657,-0.030365,-0.023346,-0.068208
0.036774,-0.057527,-0.076448,-0.096895,0.18631,-0.031586,0.020294,-0.066072
-0.016632,0.034638,-0.098726,-0.06363,-0.036469,0.073091,0.030976,-0.06363
-0.035859,0.0013733,-0.064851,0.047456,0.028229,0.029145,0.031891,-0.025483
-0.059358,0.037079,-0.16464,-0.23484,0.076753,-0.0080873,0.050202,0.02945
-0.10758,0.094453,-0.15091,-0.35782,0.039521,-0.0035096,0.043488,0.034943
-0.086824,0.025177,-0.092012,0.33463,-0.10178,0.043183,0.067597,0.090791
-0.094148,0.048676,-0.12284,-0.21317,-0.029145,0.002594,0.025483,0.074311
-0.067292,0.0077821,-0.070039,-0.1326,-0.056916,0.027008,0.090181,0.1323
-0.083772,-0.0077821,-0.061799,-0.023041,-0.10941,0.040742,-0.093538,0.10452
-0.067597,0.0010681,-0.05478,-0.050202,0.027924,-0.038911,-0.21439,0.043183
-0.052949,-0.023957,-0.02182,-0.069123,0.023041,-0.010224,0.023651,0.037995
-0.01297,-0.098116,0.01236,-0.15122,-0.025483,0.019074,0.090791,0.022736
0.028229,-0.10697,-0.018463,-0.068818,-0.022431,0.030976,0.059663,0.00076295
0.021515,-0.090181,0.00045777,-0.018463,0.043183,0.039521,-0.020294,-0.0086976
0.052949,-0.14755,0.032502,0.0013733,0.086519,0.0019837,-0.21805,-0.065156
0.048066,-0.11276,-0.0086976,-0.025177,0.061799,-0.0080873,-0.19425,-0.10117
0.031281,-0.073396,-0.032502,-0.09659,0.083772,-0.0090028,0.063935,-0.10422
0.033417,-0.074311,-0.05478,-0.075227,0.069734,0.0013733,0.098421,-0.031586
-0.0050355,-0.030671,-0.084688,-0.048981,0.017243,0.029145,0.11002,-0.031586
-0.035859,0.02121,-0.11978,-0.018158,-0.10636,-0.0071717,0.094148,-0.045319
-0.049592,0.02182,-0.12314,-0.18387,-0.19059,-0.020294,0.071565,-0.019074
-0.048676,0.0062562,-0.1149,-0.15518,-0.089265,0.0065614,0.050202,-0.0206
-0.082246,0.053559,-0.12375,-0.066987,0.08011,0.056916,0.027008,0.022126
-0.085908,0.029755,-0.088655,-0.084993,0.037995,0.21469,0.014801,0.089265
-0.090181,0.031586,-0.090181,-0.11734,-0.0019837,0.26627,-0.05539,0.071565
-0.085603,0.0044251,-0.086213,-0.14694,0.06424,-0.30259,-0.08957,0.10025
-0.048676,-0.04654,-0.024872,0.040742,0.011444,-0.36393,-0.010834,0.11093
-0.041047,-0.056611,0.00015259,-0.11917,0.026703,0.042878,0.069123,0.073396
-0.034943,-0.065461,-0.014191,-0.086824,0.063325,0.014496,0.019989,0.033112
-0.0010681,-0.10147,0.016327,-0.005951,0.0071717,0.016632,0.013886,0.023957
-0.016327,-0.061799,0.00045777,-0.082551,0.043793,-0.014801,0.08835,0.0068666
0.019379,-0.079805,-0.0086976,0.02121,0.041352,0.02884,0.11704,-0.013581
0.030365,-0.13962,-0.0099184,-0.0065614,-0.040436,0.16312,0.1265,-0.014801
0.012665,-0.11826,-0.042878,-0.061494,-0.02884,0.12772,0.19059,-0.05478
-0.00076295,-0.068818,-0.060883,-0.11521,0.0077821,0.034028,0.17929,-0.033417
-0.0083925,-0.002594,-0.11307,-0.14786,0.041352,-0.029145,-0.11551,-0.029755
-0.026703,0.0099184,-0.10666,-0.09781,0.0016785,-0.058137,-0.64652,-0.032807
-0.086213,0.043793,-0.10513,-0.099641,0.010529,-0.037079,-0.34134,0.017548
-0.085603,0.018463,-0.11612,-0.064546,0.032807,-0.0086976,0.1854,0.088045
-0.10636,0.074617,-0.13443,-0.11887,0.0065614,-0.005951,0.090181,0.078584
-0.092012,0.045624,-0.075837,-0.087739,-0.043793,0.01297,0.074311,0.090791
-0.069429,0.031586,-0.10544,-0.11368,-0.038605,0.024872,0.071565,0.058442
-0.096284,0.0074769,-0.048066,-0.17136,-0.0080873,0.016632,0.037385,0.016938
-0.02945,-0.034943,-0.029755,-0.058137,-0.03769,0.053254,0.096284,0.042878
0.040436,-0.1207,0.015412,0.059358,-0.026703,0.078584,0.10697,0.019074
0.018158,-0.081941,0.0022889,-0.099031,0.066682,-0.0038148,-0.040436,-0.069429
0.023041,-0.081331,-0.0016785,-0.069123,0.069734,-0.0022889,-0.075837,-0.091402
0.013581,-0.1207,0.034333,-0.036774,0.027924,0.044404,0.02121,-0.057832
0.029755,-0.1503,-0.0019837,-0.020294,0.025483,0.042878,0.036774,-0.0041199
0.0383,-0.095979,-0.020294,0.00045777,0.005951,0.0053407,0.045014,0.02182
0.016632,-0.082856,-0.042267,-0.045014,0.047456,-0.093233,-0.002594,-0.022126
0.014191,-0.043793,-0.085908,-0.1384,0.1387,-0.026093,0.037079,-0.0065614
-0.0086976,0.0071717,-0.13474,-0.12802,0.10575,0.050202,0.017548,-0.0071717
-0.026703,0.00015259,-0.14847,-0.11246,-0.019379,0.0022889,-0.056611,-0.025788
-0.044709,0.014191,-0.14939,-0.1149,-0.02884,-0.005951,0.011139,-0.022736
-0.082856,0.052644,-0.099336,-0.10849,-0.045319,0.0010681,0.044404,-0.010529
-0.07187,0.022431,-0.082551,-0.062409,-0.049287,0.0090028,0.045624,0.045014
-0.089265,0.051728,-0.083162,-0.066682,-0.016632,0.0068666,0.061494,0.094453
-0.084077,0.017548,-0.081331,-0.081025,-0.022431,0.011139,0.069123,0.12314
-0.079194,0.0083925,-0.041657,-0.13199,-0.018463,0.014191,0.069123,0.061189
-0.050813,-0.042267,-0.010224,-0.038911,-0.036774,0.040742,0.092927,0.043183
0.024262,-0.13535,-0.0053407,-0.041657,-0.038605,0.052338,0.13474,0.069429
0.015717,-0.12619,0.010224,-0.11582,0.048981,0.0068666,0.071565,0.00045777
0.018158,-0.10666,-0.005951,-0.025177,0.034028,-0.009308,-0.11063,-0.041962
-0.015717,-0.073396,0.0056458,-0.083162,0.035248,-0.019074,-0.37064,-0.068818
0.013581,-0.05478,-0.016632,-0.078279,0.03769,-0.00015259,-0.15244,-0.022431
0.043183,-0.074922,-0.02884,-0.026398,-0.0035096,0.036469,0.065156,0.017548
0.017243,-0.070039,-0.048066,0.03006,0.044404,0.0028992,0.0065614,-0.066072
-0.022126,-0.021515,-0.094453,-0.08896,0.085603,-0.031586,0.015106,-0.088045
-0.085908,0.04715,-0.12619,-0.11887,0.029145,-0.0096132,0.018769,-0.042573
-0.099031,0.07248,-0.11917,-0.11795,-0.032502,0.012055,0.031281,0.023041
-0.095369,0.087129,-0.12833,-0.121,-0.030671,0.018463,0.012055,0.067292
-0.10941,0.099641,-0.13291,-0.12467,-0.02884,0.010224,-0.030365,0.039826
-0.087129,0.053864,-0.11032,-0.10452,-0.045014,0.025177,0.017548,0.075227
-0.076753,0.011444,-0.0972,-0.091096,-0.047456,0.043183,0.081941,0.11154
-0.057221,-0.053559,-0.066072,-0.09781,-0.024872,0.023041,0.084077,0.083772
0.017853,-0.19272,0.023651,-0.027314,-0.025177,0.032807,0.11429,0.08957
0.051423,-0.17166,-0.032807,-0.038605,0.0047303,0.011139,0.098421,0.044099
0.050202,-0.17777,0.0099184,-0.059052,0.049897,-0.018158,0.017548,-0.027314
0.072786,-0.12955,0.020905,-0.0065614,0.035859,-0.00015259,-0.042573,-0.043793
0.056611,-0.035859,-0.00076295,-0.067597,0.037079,-0.0090028,0.0053407,-0.060578
0.0068666,-0.012665,0.0013733,-0.033112,0.04593,-0.041657,-0.13138,-0.10727
0.014801,-0.13016,0.055085,-0.077363,0.10269,0.011139,-0.18906,-0.091707
0.025483,-0.13382,-0.046845,-0.01236,0.087739,0.062104,0.076448,-0.053864
0.02945,-0.076143,-0.11643,-0.078584,0.024262,0.0022889,0.033417,-0.053254
-0.0383,0.052338,-0.11093,-0.2208,0.034028,-0.03769,-0.032807,-0.037385
-0.070039,0.027619,-0.103,-0.012055,-0.060883,0.016938,0.033417,0.023041
-0.041352,-0.061799,-0.12558,0.016632,-0.034638,0.022126,0.07248,0.068208
-0.055695,0.012665,-0.12345,-0.21012,0.10056,-0.015412,0.092012,0.026093
-0.096284,0.079805,-0.11826,-0.28855,0.0013733,0.0013733,0.044099,0.031586
-0.11734,0.12131,-0.11124,-0.060578,-0.08957,0.028229,-0.00015259,0.059358
-0.10452,0.081331,-0.083467,0.061189,-0.066682,-0.0096132,-0.024872,0.092927
-0.062715,0.010224,-0.044099,-0.20829,-0.0056458,-0.03769,-0.077058,0.095979
-0.032502,-0.032807,-0.035554,-0.086519,0.00045777,0.022736,-0.042573,0.083772
0.0016785,-0.070039,-0.018463,-0.031281,-0.011444,0.042267,0.029755,0.055695
0.010529,-0.069429,0.0013733,-0.072175,-0.0032044,0.031586,0.082856,0.02945
0.014191,-0.10483,0.02182,-0.023651,0.0090028,0.019379,0.022736,-0.0035096
0.011749,-0.098726,0.018158,-0.036164,0.022736,0.021515,0.022126,-0.028229
0.0010681,-0.089876,0.0074769,-0.050507,0.036774,0.016327,0.02884,-0.049897
0.0086976,-0.13291,-0.030365,-0.042878,0.029145,0.042573,0.022126,-0.0080873
-0.00045777,-0.098421,-0.036774,-0.0032044,0.052338,0.026398,0.019684,-0.013275
-0.023041,-0.075532,-0.08011,-0.036164,0.032807,0.0047303,-0.0041199,-0.04715
-0.028229,-0.02884,-0.088045,-0.13962,0.013581,-0.019684,0.0041199,-0.057527
-0.043488,0.0016785,-0.10544,-0.086824,-0.009308,-0.027314,-0.0080873,-0.047456
-0.089265,0.053254,-0.12497,-0.092927,0.0019837,0.0062562,-0.0041199,-0.0083925
-0.11307,0.075532,-0.11154,-0.10575,0.065766,0.0071717,0.024262,0.069123
-0.099641,0.01236,-0.10239,-0.13718,0.089265,-0.005951,0.023651,0.12436
-0.078279,0.019989,-0.103,-0.12039,-0.02884,0.016327,0.041352,0.12222
-0.0972,0.056306,-0.092317,-0.10117,-0.086213,0.012665,0.073701,0.13016
-0.061799,0.051118,-0.062715,-0.038605,-0.029755,0.014496,0.062409,0.091402
-0.040742,-0.018769,-0.040742,-0.085908,0.0047303,0.021515,0.085908,0.056306
0.0047303,-0.10544,0.00015259,-0.048371,0.017548,0.029145,0.062104,0.013886
0.0383,-0.10178,-0.00076295,-0.032502,-0.016327,0.048371,-0.12406,-0.026398
0.06363,-0.12222,0.010224,-0.040436,-0.016938,0.022736,-0.14633,-0.057527
0.047761,-0.11795,0.023957,-0.066377,0.023346,-0.0096132,0.024872,-0.096895
0.067292,-0.15854,0.0062562,-0.046845,0.051118,0.014191,0.094148,-0.068208
0.075837,-0.13169,-0.0044251,-0.058442,0.076448,0.014801,0.072175,-0.079805
0.016632,-0.041352,-0.082856,-0.1268,0.041047,0.0022889,-0.077668,-0.12009
0.0016785,-0.081941,-0.04593,0.061189,0.0050355,-0.0050355,-0.27543,-0.10086
-0.075837,0.041352,-0.12955,-0.15579,0.055085,-0.015717,-0.15702,-0.053559
-0.095064,0.049592,-0.12711,-0.1561,0.065156,-0.0086976,-0.023651,0.016632
-0.093233,0.032197,-0.15305,-0.08896,-0.065766,0.036774,0.03006,0.066682
-0.12589,0.074311,-0.15061,-0.10666,-0.10117,0.019074,0.033112,0.057221
-0.11551,0.032197,-0.068818,-0.11521,-0.089265,0.0047303,0.058137,0.092927
-0.089876,0.037385,-0.1323,-0.056306,-0.062715,-0.00076295,0.036774,0.12589
-0.10819,0.047761,-0.052338,-0.14603,0.0053407,-0.035248,0.017853,0.084077
-0.025177,-0.08011,0.00076295,-0.0096132,-0.065461,0.018769,0.099641,0.14084
0.015717,-0.058137,-0.00076295,-0.067597,0.10636,-0.0032044,0.12009,0.12222
0.028229,-0.076753,0.013275,-0.055085,0.1973,0.024262,0.10391,0.036164
0.056001,-0.12741,-0.0044251,-0.036164,-0.062715,0.093538,0.12863,-0.031281
0.082551,-0.10178,-0.012665,-0.010834,0.025788,0.022126,0.12039,-0.1091
0.047456,-0.093538,-0.0013733,-0.059052,0.073091,0.0047303,0.044099,-0.13931
0.019989,-0.12894,0.022431,-0.087739,0.083772,-0.06363,-0.31907,-0.12375
0.023957,-0.1326,-0.013581,-0.055695,0.057221,-0.079194,-0.31907,-0.051423
0.016022,-0.085908,-0.1088,-0.080415,0.053559,0.029145,0.018158,-0.01236
-0.030671,-0.023346,-0.12039,-0.033722,-0.093538,0.069429,0.079805,-0.0050355
-0.07187,0.04593,-0.10605,-0.00015259,-0.17075,0.034028,0.060578,-0.027008
-0.072786,0.031586,-0.10727,-0.16922,-0.047761,-0.0077821,0.048981,-0.0013733
-0.10849,0.075837,-0.13535,-0.20218,0.060578,-0.013886,0.060578,0.05539
-0.10544,0.083772,-0.12497,-0.15457,0.040131,-0.0028992,0.068513,0.083467
-0.078279,0.030671,-0.087129,-0.027008,-0.061189,0.076753,0.086824,0.09781
-0.078279,0.0206,-0.096284,-0.14328,-0.03769,0.044099,0.084688,0.076448
-0.096895,0.033722,-0.064851,-0.17197,0.027314,0.0032044,0.04593,0.074617
-0.049287,-0.039826,-0.031891,-0.039521,-0.002594,0.030671,0.035859,0.087434
-0.02884,-0.062409,0.0035096,0.11154,0.0053407,0.020294,0.041047,0.068513
0.0090028,-0.11948,0.058442,-0.074617,0.053559,0.0028992,-0.0044251,0.046235
0.070649,-0.1442,-0.005951,-0.078889,-0.0068666,0.061189,0.0035096,0.014801
0.11002,-0.16587,-0.037995,-0.016632,0.069123,-0.049287,0.013581,-0.071565
0.093538,-0.16037,0.013886,-0.061189,0.096895,-0.058442,0.083467,-0.11337
0.067292,-0.13046,-0.010529,-0.044099,0.052949,0.0013733,0.24338,-0.070039
0.023957,-0.052949,-0.052033,-0.016022,0.049287,-0.019989,0.16434,-0.097505
-0.024872,-0.024872,-0.066987,-0.1146,0.07187,-0.056306,-0.43961,-0.16953
-0.093843,0.015717,-0.1091,-0.046235,0.010529,-0.12009,-0.78355,-0.13779
-0.14939,0.07126,-0.12375,-0.085908,-0.039521,-0.016327,-0.067597,0.013275
-0.15152,0.074617,-0.13565,-0.18296,0.036164,0.095979,0.31968,0.10575
-0.13169,0.049592,-0.12955,-0.15091,-0.0083925,0.19608,0.15732,0.1265
-0.092927,0.042573,-0.10697,-0.08957,-0.10575,0.33127,0.099641,0.15244
-0.04654,0.0074769,-0.088045,-0.077668,-0.083772,0.24338,-0.02945,0.15305
-0.069429,0.036164,-0.083467,-0.11063,0.027008,-0.45243,-0.020294,0.093843
-0.049592,0.03006,-0.066072,-0.099947,0.002594,-0.31754,-0.0050355,0.067292
-0.0013733,-0.023651,-0.030976,-0.073701,-0.012055,0.020905,-0.05539,0.051728
0.025177,-0.077363,0.0038148,-0.044099,-0.017243,0.035554,0.048371,0.04593
0.048371,-0.11978,0.022126,-0.023651,0.0099184,0.048676,0.12039,0.017548
0.045624,-0.17411,0.040742,-0.010529,0.046845,0.018158,0.12772,-0.051728
0.032807,-0.19944,0.050202,-0.014801,0.043183,0.017243,0.1265,-0.075532
0.018769,-0.10849,-0.026093,-0.0080873,0.053559,0.016632,0.103,-0.11398
0.039826,-0.10849,-0.052338,-0.043488,0.047761,0.009308,0.040436,-0.070954
0.022736,-0.05478,-0.07126,-0.17929,0.059052,0.011444,-0.1384,-0.05478
-0.02121,-0.019379,-0.099031,-0.10269,0.012665,0.022736,-0.33646,-0.079194
-0.04654,-0.02182,-0.09659,-0.040436,-0.016938,0.027924,-0.08835,0.0071717
-0.085298,0.055085,-0.12741,-0.12467,0.0035096,0.029145,0.099947,0.05417
-0.077668,0.066377,-0.14755,-0.15396,-0.027619,0.037385,0.076448,0.047456
-0.050813,0.05539,-0.12375,-0.11124,-0.064851,0.040131,0.0795,0.042267
-0.075227,0.068208,-0.10269,-0.10513,-0.037079,-0.0050355,0.049287,0.029145
-0.078889,0.074617,-0.10086,-0.090791,-0.020905,-0.0086976,0.057832,0.023651
-0.067597,0.033722,-0.045624,-0.08957,-0.0071717,-0.0071717,0.059358,0.05417
-0.057527,-0.018769,-0.021515,-0.06363,-0.010834,0.0047303,0.048981,0.075532
-0.036469,-0.040131,-0.039826,-0.053254,0.0010681,0.027314,0.058137,0.08011
-0.022736,-0.0383,0.0074769,-0.0080873,0.035859,-0.0010681,0.016938,0.055085
0.0099184,-0.10941,0.0074769,-0.0086976,0.052949,-0.005951,-0.0050355,0.015717
0.029755,-0.12222,0.02884,-0.14786,0.072175,-0.019074,-0.058747,-0.062104
0.031891,-0.13077,-0.013886,-0.024567,0.013886,0.0206,-0.062104,-0.082856
0.06302,-0.22416,0.081331,0.0047303,-0.0022889,0.040131,-0.024872,-0.062715
0.052033,-0.24949,-0.029755,-0.061799,0.069123,-0.0019837,-0.056611,-0.076143
0.02182,-0.18082,-0.10056,-0.074311,0.061189,-0.013886,-0.00045777,-0.068208
0.0071717,0.028534,-0.1268,-0.095369,0.019684,-0.0062562,-0.0044251,-0.02945
-0.035859,0.079805,-0.11978,-0.11093,0.0096132,0.00045777,-0.012665,-0.019379
-0.086213,0.10575,-0.15274,-0.13443,-0.0028992,-0.01297,0.012665,0.027619
-0.10849,0.10636,-0.12924,-0.10391,-0.030365,-0.017548,0.0077821,0.069734
-0.095064,0.014191,-0.10697,-0.055085,-0.061494,0.019379,0.05417,0.098116
-0.072786,0.0056458,-0.094453,-0.056306,-0.030365,0.023957,0.085603,0.098116
-0.11643,0.077668,-0.098116,-0.20066,0.017853,-0.011444,0.067903,0.056001
-0.10697,0.039521,-0.042878,-0.14511,-0.060578,0.037079,0.064546,0.083772
-0.096284,0.030671,-0.030671,-0.075837,-0.077974,0.05417,0.053254,0.092012
-0.03769,-0.05417,0.015412,0.012055,-0.009308,0.018463,0.03769,0.092622
0.0019837,-0.076753,-0.01297,-0.059663,0.066682,0.0047303,-0.020905,0.037079
0.00045777,-0.072175,0.0099184,-0.086519,0.072175,0.023041,-0.024872,-0.0053407
0.020905,-0.090181,0.01236,-0.028534,-0.00076295,0.086824,0.088045,0.0080873
0.05539,-0.14023,0.0038148,0.00045777,0.019684,0.034028,0.0383,-0.017548
0.033722,-0.1146,-0.0035096,0.052033,0.059968,-0.010224,-0.010224,-0.055695
0.047761,-0.12863,-0.076143,-0.065156,0.10422,0.02121,0.0086976,-0.069429
0.033722,-0.073396,-0.08896,-0.12711,0.079805,-0.0047303,-0.012665,-0.096895
-0.0041199,-0.041352,-0.1149,-0.1445,-0.010224,-0.034943,-0.043793,-0.099336
-0.011139,-0.023346,-0.10941,-0.11276,-0.034333,-0.023041,-0.023651,-0.052949
-0.049897,0.049287,-0.12497,-0.059052,-0.052949,-0.005951,0.018158,-0.012665
-0.051728,0.062409,-0.13443,-0.10575,-0.0083925,-0.031891,-0.059968,-0.0028992
-0.10391,0.060578,-0.094148,-0.096895,0.0056458,-0.033112,-0.11124,0.02121
-0.1268,0.095674,-0.12375,-0.12039,0.0035096,0.016327,0.016938,0.090181
-0.06302,0.025177,-0.06424,-0.04715,0.0068666,0.014496,0.058442,0.13169
-0.018463,-0.050507,-0.017548,-0.061494,0.0090028,-0.030976,0.033112,0.04715
-0.039826,-0.066377,-0.031891,-0.13321,-0.018158,-0.031891,0.053864,0.031281
-0.042878,-0.057832,-0.00015259,-0.12314,-0.041352,-0.0032044,0.049897,0.035248
-0.00076295,-0.13138,0.053864,-0.062715,0.016632,0.041352,0.018158,0.019684
0.023957,-0.17807,0.023651,-0.0090028,-0.024567,0.17136,-0.040436,-0.0086976
0.060578,-0.19699,-0.017548,0.034028,-0.052949,0.11551,-0.023041,-0.029145
0.040436,-0.048066,-0.076753,-0.11154,0.031891,-0.068513,0.0010681,-0.041352
0.017548,-0.057832,-0.011749,0.0035096,0.07126,-0.030365,0.041657,-0.053254
-0.0206,-0.027924,-0.044404,-0.048676,0.081331,0.019989,-0.12924,-0.043183
-0.043793,-0.060883,-0.021515,-0.083467,0.094759,-0.025177,-0.17075,0.016022
-0.0032044,-0.033417,-0.14511,-0.14389,0.044404,0.0013733,0.11398,0.053864
-0.039216,0.027314,-0.14176,-0.1445,0.0019837,0.0032044,0.13382,0.035554
-0.078279,0.055695,-0.12253,-0.047456,-0.052644,0.034638,0.071565,-0.002594
-0.099336,0.062409,-0.12711,-0.09781,-0.030671,0.00015259,0.042267,0.024262
-0.11795,0.061494,-0.093538,-0.15122,0.0050355,-0.037079,-0.0062562,0.0096132
-0.095674,0.033112,-0.11154,-0.041047,-0.049592,-0.00076295,0.030365,0.05417
-0.053559,-0.0016785,-0.066377,-0.044099,-0.01297,-0.0013733,0.012055,0.083772
-0.09781,0.023651,-0.036774,-0.24826,0.049897,-0.036469,-0.086824,0.035554
-0.069734,-0.005951,-0.0080873,-0.075837,-0.077363,0.058137,0.013886,0.060578
-0.00045777,-0.10452,-0.0016785,0.0010681,-0.069123,0.081636,0.10056,0.074617
0.041962,-0.1384,-0.0080873,-0.12436,0.066377,0.0071717,0.047761,-0.012055
0.07126,-0.1442,0.00045777,0.24247,0.1146,-0.017243,-0.13352,-0.065461
0.070039,-0.13626,-0.023041,-0.13046,0.083772,-0.048371,-0.24186,-0.11124
0.066377,-0.15427,0.032502,-0.094453,-0.0090028,0.018463,0.062409,-0.058747
0.031281,-0.087739,-0.013886,-0.08072,-0.023651,0.037995,0.10147,-0.031586
-0.0053407,-0.00076295,-0.07126,-0.031281,0.031891,-0.01297,0.04593,-0.047456
-0.015412,-0.010529,-0.12528,0.03769,0.061494,0.0010681,0.084382,-0.0090028
-0.0383,0.028229,-0.12894,-0.25315,0.081941,-0.018769,0.084077,0.005951
-0.084382,0.024262,-0.11154,-0.068818,-0.014191,0.0041199,0.12528,0.019684
-0.11612,0.07248,-0.10697,-0.091096,-0.11856,0.027314,0.12772,0.045624
-0.10697,0.031586,-0.103,-0.058747,-0.030671,0.0050355,-0.035554,0.056306
-0.081025,0.014496,-0.12222,-0.20279,0.041047,0.025177,-0.21561,0.092317
-0.056001,0.034333,-0.11063,-0.18997,0.02182,0.059052,0.018158,0.085603
-0.016938,-0.036469,-0.026398,-0.031281,-0.081941,-0.0038148,0.026703,0.011749
-0.027619,-0.018769,-0.036774,-0.057221,-0.058747,-0.0099184,-0.04654,-0.010529
0.0086976,-0.07248,0.0077821,-0.027619,0.015717,0.0010681,-0.00045777,0.034333
0.033112,-0.076753,0.011749,-0.038911,0.027924,-0.009308,0.026093,0.031281
0.041352,-0.11093,0.025483,-0.03769,0.05417,-0.01297,0.009308,-0.030365
0.021515,-0.072786,-0.0013733,-0.058747,0.053864,0.0010681,-0.0065614,-0.046845
0.016938,-0.10056,-0.016022,-0.018463,0.039521,0.020905,0.017548,-0.023346
0.013275,-0.10819,-0.070649,-0.033112,0.043793,0.0086976,0.017548,-0.027619
-0.031586,-0.076143,-0.035859,-0.10452,0.072175,-0.01297,0.011139,-0.055695
-0.040436,-0.093843,-0.019074,-0.061189,0.011749,0.028534,0.030365,-0.046845
-0.061494,-0.06363,-0.08011,-0.086519,-0.010529,0.030365,0.030976,-0.041962
-0.081331,-0.020294,-0.11734,-0.085298,0.0090028,0.0090028,0.033722,-0.010834
-0.096895,0.10117,-0.16526,-0.15,-0.014801,0.016022,0.043488,0.047456
-0.087739,0.10605,-0.11612,-0.05539,-0.028534,0.002594,0.034333,0.070039
-0.095369,0.053864,-0.10239,-0.030976,-0.098421,0.033417,0.037385,0.053559
-0.079805,0.028534,-0.11704,-0.25559,-0.10727,0.052338,0.010529,0.019074
-0.075227,0.043793,-0.076448,-0.16922,0.0053407,0.0022889,-0.034943,0.043793
-0.035554,-0.023957,-0.025483,-0.016632,-0.016938,0.015412,-0.047456,0.062104
0.036774,-0.074617,-0.036164,-0.0083925,0.0077821,-0.00076295,0.005951,0.068513
0.035859,-0.1445,0.032502,-0.092317,0.15091,-0.069123,0.00076295,0.016938
0.047761,-0.15488,0.019379,0.049592,0.20249,-0.053559,0.027008,0.002594
0.026093,-0.088045,-0.0068666,-0.039216,-0.0086976,0.04654,0.017853,-0.0053407
0.031281,-0.084382,0.005951,-0.11704,0.041657,0.024567,0.010834,-0.0096132
0.054475,-0.090791,-0.027619,-0.10513,0.048371,0.050202,0.103,-0.0010681
0.053254,-0.11154,-0.022431,-0.091402,0.014801,0.014496,0.01297,-0.04715
0.0019837,-0.065461,-0.063325,-0.083772,0.019989,-0.044099,-0.16068,-0.060883
-0.022736,-0.028229,-0.082246,-0.07126,0.002594,-0.0035096,-0.018463,-0.040436
-0.065766,0.0099184,-0.12222,-0.056306,0.02182,0.019379,0.085603,-0.023041
-0.095979,0.059358,-0.14115,-0.11185,0.02182,0.020905,-0.043793,0.00076295
-0.093538,0.048371,-0.12039,-0.00015259,-0.14664,0.051423,-0.050507,0.0019837
-0.087129,0.037995,-0.11734,-0.11734,-0.19211,-0.020905,-0.024262,0.013275
-0.14786,0.11734,-0.12772,-0.17258,-0.0080873,-0.08957,0.0068666,0.029755
-0.15,0.10147,-0.082246,-0.11246,0.039216,-0.011749,0.019074,0.103
-0.11551,-0.048066,0.042878,-0.050507,-0.027314,0.060883,0.056001,0.14786
-0.084993,-0.098116,-0.072175,-0.082246,-0.0010681,0.06363,0.1088,0.16129
-0.033112,-0.08957,-0.032807,-0.095369,0.0099184,0.060578,0.098421,0.12833
0.00045777,-0.046845,-0.0056458,-0.050813,-0.0050355,0.064546,0.094453,0.069429
0.040436,-0.084382,0.0032044,0.0096132,0.023041,0.045624,0.061189,0.030365
0.061494,-0.11429,0.029755,-0.027619,0.060578,0.020294,0.014191,-0.052033
0.07187,-0.18601,0.014191,-0.0383,0.072175,0.0053407,-0.00076295,-0.077363
0.06302,-0.15427,-0.046235,-0.045319,0.068208,-0.014801,-0.016632,-0.070649
0.051728,-0.098116,-0.041657,-0.04715,0.076143,-0.040131,-0.045014,-0.08957
0.009308,-0.0383,-0.070039,-0.072786,0.070344,-0.027314,-0.055085,-0.083772
-0.035554,0.0038148,-0.11124,-0.19791,0.051423,-0.005951,-0.035859,-0.0795
-0.06363,0.10605,-0.14298,-0.22538,0.0047303,0.014496,-0.01297,-0.041657
-0.081941,0.11154,-0.15305,0.2153,-0.034333,0.024262,0.002594,-0.00076295
-0.070039,0.018158,-0.076448,-0.16403,-0.00015259,-0.019379,-0.015717,0.009308
-0.042878,0.0065614,-0.11063,-0.17197,-0.061494,0.0028992,0.0068666,0.041352
-0.062104,-0.032502,-0.08957,-0.13321,-0.058442,0.020294,0.025177,0.024872
-0.043793,-0.041352,-0.070344,-0.041657,-0.028229,0.01297,0.057527,0.026703
-0.0065614,-0.091707,-0.019684,-0.053254,-0.0041199,0.022736,0.095369,0.06424
-0.011139,-0.037385,-0.056001,-0.12497,0.0065614,-0.0080873,0.047761,0.060578
-0.038911,-0.0065614,0.0038148,-0.020294,-0.01297,-0.0074769,-0.0047303,0.033417
-0.030365,-0.071565,0.04654,0.0080873,0.0383,0.032502,-0.011139,0.036164
0.015106,-0.074922,-0.018769,-0.10758,0.08072,0.035248,-0.049592,0.02884
0.034943,-0.11368,-0.01297,-0.1207,0.02884,0.012665,-0.0065614,-0.013275
0.052338,-0.092012,-0.0099184,-0.049592,-0.010834,-0.052033,0.059663,-0.051728
0.036164,-0.087739,-0.0028992,0.024872,0.013886,0.010529,0.094453,-0.076143
-0.0090028,-0.066072,-0.041047,-0.01236,0.053559,0.017243,0.17624,-0.059052
-0.032502,-0.021515,-0.077974,-0.22385,0.07126,-0.041962,0.21958,-0.044404
-0.06363,0.025483,-0.13931,-0.1799,0.0010681,0.016327,0.17685,-0.0071717
-0.074006,-0.0077821,-0.15152,-0.069734,-0.087434,0.065156,-0.12467,0.032197
-0.079805,-0.036469,-0.086519,-0.042267,-0.033722,0.0050355,-0.4799,-0.02121
-0.093538,-0.0038148,-0.10605,-0.10147,0.0077821,-0.043793,-0.016938,0.0032044
-0.11704,0.078279,-0.121,-0.10117,-0.0074769,-0.034943,0.14542,0.037995
-0.095369,0.083772,-0.13321,-0.093233,-0.046845,0.069429,0.08072,0.086824
-0.068208,0.019074,-0.081025,-0.039521,-0.048371,0.10178,-0.11246,0.11307
-0.04593,-0.025483,-0.033112,-0.10788,-0.044709,0.14481,-0.3267,0.10971
-0.04654,-0.0086976,-0.022431,-0.11734,-0.044404,0.28916,-0.28519,0.10178
-0.0206,-0.034028,0.016632,-0.032197,0.098726,-0.19486,0.030976,0.098116
0.015717,-0.088045,0.016327,-0.01236,0.14694,-0.43015,0.10269,0.050507
0.041352,-0.17746,0.024262,-0.031586,0.073701,-0.011749,-0.058137,-0.041657
0.039521,-0.18662,0.030976,-0.06302,0.031891,0.023957,0.075227,-0.077363
0.062409,-0.21164,0.01236,-0.022431,0.022736,0.049592,0.11795,-0.069429
0.051728,-0.1619,-0.027008,-0.05478,0.041657,0.0090028,0.0047303,-0.13321
-0.0053407,-0.035859,-0.095979,-0.082856,0.039216,0.0086976,0.043793,-0.10544
0.0080873,0.0086976,-0.11948,-0.02884,-0.0086976,0.059052,0.10697,-0.0083925
-0.059358,0.11124,-0.13504,-0.10697,0.018158,0.014191,0.036774,-0.027619
-0.083772,0.073091,-0.11612,-0.17807,0.022126,-0.005951,-0.010834,-0.0090028
-0.074922,0.068513,-0.11063,-0.058747,-0.058442,0.019379,-0.017243,0.064546
-0.090791,0.072175,-0.13169,-0.096895,-0.043488,0.0062562,0.02182,0.060578
-0.091707,0.040742,-0.081025,-0.11978,-0.015412,0.005951,0.0795,0.039521
-0.087739,0.018463,-0.10025,-0.16861,-0.04715,0.029145,0.064546,0.049897
-0.045624,-0.013581,-0.060883,-0.13138,-0.030671,0.016022,0.045624,0.06424
-0.031281,-0.068513,-0.0028992,-0.00076295,-0.074922,0.048981,0.048066,0.057527
-0.013581,-0.17624,0.027314,0.097505,-0.042878,0.064546,0.069734,0.078279
-0.00045777,-0.09781,-0.027924,-0.17929,0.068513,0.011444,0.057527,0.075532
0.02182,-0.10056,0.0086976,-0.051728,0.073701,0.010834,0.037385,0.04593
0.059358,-0.10239,-0.00045777,-0.067597,0.016022,0.040436,0.042878,0.023651
0.035859,-0.090181,-0.011749,-0.066377,0.080415,0.027008,0.027924,-0.050813
0.034333,-0.093538,-0.020294,-0.015106,0.062409,0.042573,0.04715,-0.042878
0.033112,-0.078889,-0.057832,-0.033417,0.03769,0.017853,0.030976,-0.027619
-0.010224,-0.028534,-0.07248,-0.069429,0.039521,-0.00076295,-0.020294,-0.083467
-0.039216,-0.0028992,-0.08011,-0.099336,0.038911,-0.012665,-0.043488,-0.086213
-0.075227,0.026703,-0.10727,-0.11978,0.018158,-0.016938,-0.041657,-0.041962
-0.092012,0.045319,-0.12284,-0.12131,-0.028534,0.002594,-0.015717,-0.018769
-0.079194,0.040131,-0.12161,-0.084688,-0.030976,0.011139,0.026093,0.016938
-0.10025,-0.002594,-0.12436,-0.064546,-0.030365,-0.0016785,0.0056458,0.02945
-0.11032,0.019074,-0.10269,-0.11307,-0.016327,-0.018158,-0.010834,0.048981
-0.10147,0.011444,-0.068208,-0.083162,0.00076295,-0.019989,0.0038148,0.090486
-0.081636,0.035859,-0.069429,-0.095674,-0.0022889,-0.011749,0.013275,0.096895
-0.065461,0.028534,-0.038911,-0.12284,-0.014801,0.027008,0.033112,0.090791
0.011139,-0.059358,-0.00076295,-0.024567,-0.028229,0.046235,0.056001,0.052949
0.048981,-0.090791,0.024262,-0.090486,-0.0096132,0.02121,0.052338,-0.010224
0.026093,-0.072786,0.016022,-0.13901,0.027008,0.0022889,0.00076295,-0.043183
0.0096132,-0.061799,0.0096132,-0.090486,-0.0013733,0.028534,0.017243,-0.01236
0.0096132,-0.089876,-0.0068666,0.26993,0.065766,0.0038148,0.01297,-0.024262
0.032807,-0.17258,-0.0068666,-0.13199,0.10208,-0.015412,-0.018769,-0.042878
-0.00015259,-0.090791,-0.10239,-0.079194,0.044404,0.020905,0.0013733,-0.025483
-0.031891,-0.014801,-0.11551,-0.095064,0.098421,0.015106,-0.019379,-0.038911
-0.020905,-0.059968,-0.016327,-0.077668,0.024262,0.0086976,-0.01297,0.002594
-0.027008,-0.11154,-0.02884,-0.11368,-0.020294,-0.017548,0.010834,0.016632
-0.065461,-0.08835,-0.13535,-0.038911,-0.0206,-0.010224,-0.00015259,0.027314
-0.094453,0.088655,-0.16983,-0.13962,-0.024872,0.00076295,0.041657,0.08835
-0.10849,0.14328,-0.13443,-0.14694,-0.027314,0.022736,0.02945,0.059968
-0.095674,0.091402,-0.11337,-0.00045777,-0.081636,0.047456,0.031586,0.048371
-0.048371,0.0099184,-0.066987,-0.073701,-0.073091,0.024872,0.03769,0.060273
-0.010224,-0.036164,-0.040131,-0.24186,-0.065461,0.0041199,0.03006,0.049897
0.017853,-0.054475,-0.016938,-0.069123,0.033112,-0.014801,0.04593,0.038911
0.069123,-0.12802,0.0062562,-0.01297,0.086213,0.044404,0.069123,0.033112
0.052033,-0.14694,0.0062562,-0.078279,0.053559,0.02121,0.014191,-0.02121
0.03769,-0.08072,-0.0035096,-0.031281,0.020905,-0.0041199,-0.01236,-0.04593
0.045014,-0.10178,0.014191,-0.019379,0.028229,0.005951,-0.016327,-0.049287
0.030976,-0.087434,-0.0056458,-0.019684,0.068513,-0.01297,-0.096284,-0.090181
0.039521,-0.12253,-0.027008,-0.10452,0.028229,-0.0050355,-0.090181,-0.10086
-0.0065614,-0.050813,-0.050813,0.047456,-0.034638,0.011444,-0.030976,-0.093843
-0.053864,0.0086976,-0.11612,-0.061799,0.032197,-0.0050355,-0.0090028,-0.064851
-0.058137,-0.0038148,-0.12222,-0.25345,0.16342,-0.077974,-0.00015259,0.0053407
-0.092012,0.03006,-0.11734,-0.078279,-0.0062562,0.0071717,0.025788,0.055085
-0.098116,0.033722,-0.1146,-0.099336,-0.04654,0.025177,-0.057221,0.10971
-0.11612,0.076143,-0.10941,-0.12253,-0.0056458,-0.0013733,-0.1738,0.11154
-0.081941,0.041657,-0.13321,-0.084382,-0.058442,0.037995,0.085603,0.10575
-0.095064,0.00015259,-0.090791,-0.064546,-0.049592,0.034333,0.13107,0.103
-0.072786,0.044404,-0.038605,-0.087434,-0.0028992,0.019379,0.082551,0.092012
-0.041047,0.019379,-0.036469,-0.066987,0.0074769,0.016938,0.099947,0.053559
-0.028229,0.015717,-0.018158,-0.089876,-0.0041199,0.022126,-0.010224,0.0035096
0.002594,-0.055695,0.015412,-0.054475,-0.0010681,0.042878,0.017548,0.035248
0.031281,-0.093538,-0.016022,-0.048371,0.0086976,0.053559,0.11887,0.056001
0.063325,-0.18204,0.026703,-0.040131,0.028229,0.027008,0.08072,-0.024262
0.066072,-0.21836,0.00076295,0.010529,0.013275,0.019989,0.043793,-0.099641
0.060273,-0.21836,-0.012665,-0.02121,0.057832,-0.0016785,0.0056458,-0.12406
0.0050355,-0.1442,-0.023957,-0.066377,0.093538,-0.013275,-0.030976,-0.11765
-0.025788,-0.014496,-0.10666,-0.060273,0.06424,0.0068666,-0.062104,-0.068818
-0.041352,0.059968,-0.084993,-0.13443,0.035554,-0.0074769,-0.069123,-0.053559
-0.083162,0.077974,-0.096284,-0.12802,0.011139,-0.0053407,-0.026703,-0.013275
-0.092927,0.051728,-0.10636,0.002594,-0.034943,0.017853,0.036164,0.053254
-0.10575,0.061189,-0.13779,-0.10697,-0.025483,0.027314,0.082551,0.11032
-0.1265,0.077363,-0.11612,-0.24491,-0.018769,0.021515,0.04654,0.08835
-0.085603,0.047761,-0.1207,-0.040131,-0.13962,0.030976,0.010529,0.085603
-0.065461,-0.0096132,-0.066987,-0.052949,-0.092012,0.011139,-0.0074769,0.067903
-0.03769,-0.016632,-0.044709,-0.082551,0.074006,-0.02945,-0.059052,0.042878
-0.028229,-0.033722,-0.037995,-0.10086,0.067292,-0.019379,-0.034333,0.035859
0.033417,-0.09781,0.0032044,-0.082246,-0.026398,-0.010834,0.024262,0.035554
0.067597,-0.17746,0.076448,-0.010834,-0.073396,0.026398,0.0096132,0.022736
0.077363,-0.10697,-0.0065614,-0.0074769,-0.029755,0.046845,0.043183,-0.0032044
0.060578,-0.070954,-0.032502,-0.047456,0.06302,0.020294,0.078584,-0.045014
0.034943,-0.076448,-0.0053407,-0.11917,0.092622,-0.015717,-0.019074,-0.077974
0.015717,-0.089876,-0.016632,-0.043488,0.067597,-0.016022,-0.00015259,-0.053864
-0.014191,-0.040436,-0.061799,-0.082856,0.24186,-0.087739,-0.06363,-0.047761
-0.0096132,-0.10391,-0.042267,-0.050813,0.12985,-0.015717,-0.24857,-0.033417
-0.05539,-0.092927,-0.0795,-0.087739,-0.08896,0.050813,-0.015717,-0.032502
-0.070039,-0.022431,-0.15702,-0.079805,-0.015717,-0.0071717,0.095369,-0.0068666
-0.094148,0.059358,-0.14572,-0.070344,-0.017548,0.022126,0.091402,0.073701
-0.1207,0.11582,-0.14267,-0.14206,-0.016938,0.029145,0.068208,0.070039
-0.085298,0.057527,-0.12467,-0.1033,-0.045014,0.028534,0.049897,0.04715
-0.052949,-0.017548,-0.064546,-0.0047303,-0.056611,0.018769,0.036164,0.061494
-0.084993,-0.0086976,-0.049287,-0.08957,0.0019837,-0.0035096,0.018158,0.049897
-0.054475,-0.017853,-0.023651,-0.19394,0.0077821,-0.017548,0.062104,0.040131
-0.042573,-0.018158,-0.033722,-0.13962,-0.024567,0.033417,0.067903,0.048981
-0.041047,-0.061799,0.005951,0.010834,0.049287,0.059052,0.056001,0.015717
0.019074,-0.095979,-0.022736,-0.030365,0.053559,0.039216,0.052949,0.015717
0.027924,-0.086519,-0.021515,-0.070344,-0.07126,0.050202,0.029755,-0.016327
-0.012665,-0.056916,-0.0096132,-0.061799,-0.19303,0.066682,0.04715,-0.022431
-0.041962,-0.065461,-0.00076295,-0.010529,-0.047456,-0.0022889,0.069429,0.033417
-0.0065614,-0.080415,-0.014496,0.0071717,0.14878,-0.02121,0.038911,0.077363
-0.0010681,-0.077363,-0.04654,-0.14267,0.17411,-0.018769,0.032197,0.020905
0.020905,-0.090791,-0.056916,-0.06302,0.059052,0.0032044,0.06302,-0.012665
-0.029755,-0.00076295,-0.11521,-0.26108,0.011139,-0.00015259,0.092317,-0.0050355
-0.067597,0.0096132,-0.12619,0.14755,0.013275,-0.0071717,0.024872,0.034028
-0.075227,0.026398,-0.14267,-0.11337,0.00076295,-0.0013733,-0.19303,0.0383
-0.089876,0.10422,-0.14145,-0.15915,0.023041,0.0032044,-0.26108,-0.034943
-0.041962,0.036164,-0.090486,-0.089876,-0.065766,0.018463,0.019684,-0.013581
-0.062104,0.034333,-0.092317,-0.1265,-0.0065614,-0.047761,0.32425,-0.014191
-0.069429,0.016022,-0.060883,-0.11978,0.025177,-0.053559,0.21653,-0.012055
-0.019074,-0.083772,-0.011444,-0.034943,0.0077821,-0.076143,-0.15488,-0.0032044
0.0071717,-0.06363,-0.026093,-0.010834,-0.020294,-0.02182,-0.69535,-0.047456
0.021515,-0.092622,0.01236,-0.095674,-0.044709,0.11795,-0.42252,-0.035554
0.053559,-0.090486,-0.0019837,-0.11521,-0.043183,0.12924,0.14054,0.025177
0.062409,-0.12009,0.016327,-0.018158,-0.016938,0.081636,0.22751,0.0099184
0.061799,-0.11978,-0.0041199,0.03006,0.047761,0.042573,0.15824,-0.034943
0.045319,-0.097505,-0.01236,-0.095674,0.10391,0.0032044,0.11643,-0.039521
0.0077821,-0.050507,-0.045624,-0.11521,0.082246,-0.0077821,0.044404,-0.059968
-0.0062562,-0.076448,-0.0068666,-0.061189,-0.0065614,0.034638,0.017548,-0.034333
-0.034638,-0.052338,-0.1146,-0.044099,-0.018463,0.002594,-0.030671,0.016938
-0.066682,-0.020905,-0.20584,-0.13382,0.051728,-0.12161,-0.085603,-0.00015259
-0.1387,0.076143,-0.11978,-0.10117,0.037079,-0.067292,0.0071717,-0.028534
-0.13809,0.1033,-0.10849,-0.10086,-0.015106,0.027314,0.14328,0.066682
-0.11429,0.051728,-0.070649,-0.085908,-0.0028992,-0.019684,0.15946,0.13413
-0.065766,-0.060273,-0.073396,0.005951,-0.010224,0.034943,0.14481,0.14511
-0.059663,0.015412,-0.10697,-0.10758,0.015412,0.092927,0.121,0.12589
-0.069429,0.027924,-0.059968,-0.11063,-0.0062562,0.22263,0.088045,0.08957
-0.014801,-0.05417,-0.040742,-0.1146,-0.092012,0.38163,0.056001,0.06363
0.012055,-0.084993,0.010529,-0.06363,0.033722,-0.15,-0.12985,0.0068666
0.044099,-0.1088,0.032197,-0.020905,0.060578,-0.46799,-0.16007,-0.036774
0.05539,-0.10239,0.0022889,-0.032197,0.024262,-0.0022889,-0.10544,-0.037385
0.032807,-0.10056,-0.0080873,-0.075837,0.047456,0.0062562,-0.1445,-0.091402
0.059663,-0.12833,0.0056458,-0.019074,0.045014,-0.018158,-0.067903,-0.074617
0.022736,-0.081331,-0.029145,-0.063325,0.02884,0.019379,0.044099,-0.098116
0.0050355,-0.037385,-0.078584,-0.10666,0.037385,0.033112,0.065461,-0.077974
-0.015412,-0.026398,-0.08011,-0.076753,0.013886,0.023041,0.043488,-0.0028992
-0.047456,-0.0016785,-0.0972,-0.066682,-0.0050355,0.025177,0.041657,0.023041
-0.063325,-0.011444,-0.11948,-0.073701,-0.00015259,0.025483,0.079194,0.045319
-0.088045,0.0383,-0.11826,-0.10575,0.018158,0.0053407,0.060578,0.059968
-0.057832,0.024262,-0.1033,-0.030976,0.002594,0.023957,0.045014,0.030365
-0.087129,0.059663,-0.12772,-0.18936,-0.033112,0.030365,0.053559,0.0074769
-0.096895,0.1207,-0.12161,-0.15671,-0.055695,0.012055,0.044099,0.025483
-0.079194,0.056611,-0.06424,-0.0068666,-0.081331,0.048371,0.035248,0.070344
-0.060578,0.015106,-0.030365,-0.13474,0.0065614,0.032502,0.025788,0.086519
-0.025483,-0.092927,-0.019684,-0.10971,0.019989,0.020294,0.030976,0.056611
-0.0032044,-0.12222,0.019989,-0.075532,-0.047761,0.032807,0.057832,0.063325
0.029145,-0.19821,0.012055,-0.14939,0.017243,0.0050355,0.034028,0.026093
0.053864,-0.20584,0.0019837,0.25834,0.044099,-0.02121,-0.06302,0.02121
0.015106,-0.11215,-0.010834,-0.10727,0.057832,-0.049592,-0.11704,-0.014801
0.027314,-0.062715,-0.030365,-0.14328,0.057527,-0.010834,-0.053559,-0.023041
0.031891,-0.083467,-0.030976,-0.041352,0.045319,0.031281,0.044099,-0.016938
-0.010834,-0.030365,-0.059052,-0.084688,0.052949,0.014801,0.043488,-0.059663
-0.011139,-0.018158,-0.068513,0.0013733,0.02884,0.015106,0.045624,-0.023346
-0.040742,-0.038605,-0.061189,-0.081331,0.016938,-0.02182,-0.0013733,-0.025483
-0.04593,-0.023651,-0.1326,-0.077668,0.015412,-0.044404,-0.090791,-0.026398
-0.05539,0.044404,-0.13748,-0.14878,0.011444,0.015106,-0.012665,0.036774
-0.097505,0.09659,-0.13107,-0.13596,-0.016632,0.038605,0.081941,0.055695
-0.10727,0.10666,-0.11521,-0.11917,-0.05539,0.019074,0.073701,0.099641
-0.092317,0.07187,-0.12284,-0.099947,-0.026398,0.032807,0.053864,0.091707
-0.07126,0.051728,-0.051118,-0.072175,-0.01236,0.030671,0.026703,0.062409
-0.052644,0.018463,-0.041657,-0.07248,-0.0068666,0.010834,-0.030671,0.0053407
-0.027619,-0.032502,-0.030671,-0.074311,-0.002594,0.0077821,-0.053559,-0.018769
0.03006,-0.14603,0.042267,0.011444,-0.002594,0.015106,-0.067903,-0.0090028
0.049897,-0.15854,0.023651,-0.14206,0.041352,-0.0056458,-0.033417,-0.013581
0.05417,-0.13687,0.013886,-0.060883,0.031281,0.0086976,0.009308,-0.059663
0.035859,-0.11643,-0.0062562,0.037995,-0.010224,0.034333,0.063935,-0.040436
0.02884,-0.12619,-0.012055,-0.045319,0.08957,0.023957,0.047761,-0.051423
0.00045777,-0.087434,-0.02884,0.027008,0.076448,0.0062562,-0.015106,-0.10513
-0.030976,-0.061494,-0.07126,-0.08835,-0.0065614,-0.019379,-0.019074,-0.084382
-0.045319,-0.034638,-0.10208,-0.24094,-0.035554,-0.0016785,0.026703,0.005951
-0.085298,0.033112,-0.11612,-0.12284,0.050507,-0.011444,0.048066,0.039216
-0.10819,0.07187,-0.13657,-0.081636,0.058137,0.030365,0.063325,0.064546
-0.11612,0.10117,-0.1323,-0.12467,-0.019074,0.040436,0.073396,0.10178
-0.083467,0.060273,-0.10849,-0.085908,-0.044709,0.040131,0.075532,0.12222
-0.072175,0.012055,-0.096895,-0.058747,-0.04654,0.03006,0.023651,0.085298
-0.059663,-0.01236,-0.084077,-0.14359,-0.042878,0.010834,-0.027314,0.060578
-0.03769,-0.072786,-0.013581,-0.042878,-0.038605,-0.0010681,-0.023041,0.059052
-0.0090028,-0.090181,0.00076295,-0.027314,-0.039521,0.027314,0.0013733,0.048981
0.0053407,-0.070954,-0.0065614,-0.085298,-0.019074,0.010224,-0.014191,0.002594
0.028229,-0.098116,-0.0016785,-0.087739,0.077363,-0.039826,-0.060883,-0.039216
0.045319,-0.1207,-0.0019837,0.0053407,0.084688,0.01236,-0.022736,-0.0206
0.027924,-0.07248,-0.023041,0.035554,0.033417,-0.016938,-0.015106,-0.024567
0.019684,-0.076753,-0.0056458,-0.10697,0.091707,-0.023957,-0.00015259,-0.010834
0.031586,-0.14176,0.016327,-0.042878,0.060273,0.026398,0.074617,0.013886
0.011139,-0.076143,-0.050507,-0.080415,0.0090028,0.021515,0.0795,-0.032807
-0.021515,-0.028534,-0.088655,-0.077058,0.018769,0.0083925,0.022126,-0.084382
-0.044404,0.0056458,-0.10819,-0.11276,0.0050355,0.018463,-0.022431,-0.081636
-0.064546,0.033417,-0.13443,-0.11246,-0.016632,0.0038148,-0.089876,-0.047456
-0.084382,0.068208,-0.16098,-0.083772,-0.029755,-0.0035096,-0.056001,-0.0032044
-0.076143,0.054475,-0.1268,-0.073701,-0.0074769,-0.0096132,-0.018769,0.039216
-0.084077,0.07126,-0.094759,-0.11032,-0.018769,0.005951,-0.010224,0.10086
-0.069429,0.055085,-0.084993,-0.14847,-0.025788,0.0206,0.0068666,0.11704
-0.061494,-0.012055,-0.055085,-0.1033,-0.035248,0.0013733,-0.0090028,0.050507
-0.041962,-0.020905,-0.03769,-0.10666,-0.034943,0.012665,-0.0013733,0.012055
-0.031586,-0.040436,-0.017853,0.025788,-0.025788,0.04654,0.033722,-0.012055
0.06424,-0.13657,0.011444,-0.014496,-0.02121,0.052338,0.070344,0.028229
0.049287,-0.099336,-0.0035096,-0.12192,0.048981,0.010834,0.057221,0.015106
0.027314,-0.095369,0.0044251,-0.039216,0.058137,0.013275,0.037079,-0.039521
0.012665,-0.10758,-0.0074769,0.0013733,0.041352,0.036164,0.051423,-0.019379
-0.0013733,-0.078889,-0.0096132,-0.018769,0.081636,0.032197,0.023957,0.014801
-0.0035096,-0.077363,-0.011444,-0.00045777,0.06424,0.040742,0.018769,0.0016785
-0.025788,-0.076143,0.014191,0.022736,0.03769,-0.034333,0.015106,-0.081025
-0.012665,-0.10147,-0.1268,-0.20493,0.009308,-0.10361,-0.015412,-0.048676
-0.060578,-0.048981,-0.11948,-0.15213,-0.0080873,-0.0032044,-0.0022889,-0.018158
-0.054475,-0.0053407,-0.103,-0.020905,0.0056458,0.034638,0.088655,0.027314
-0.09781,0.10452,-0.14572,-0.21469,0.070344,0.0044251,0.039216,0.05539
-0.094453,0.088655,-0.13382,-0.044404,-0.043488,0.022736,-0.19486,0.07187
-0.066682,0.081331,-0.13565,-0.17868,-0.14176,0.056916,-0.095369,0.10575
-0.077058,0.082246,-0.11093,-0.16953,-0.043183,0.022126,0.13046,0.076753
-0.056916,0.0080873,-0.057832,-0.022126,-0.071565,0.055695,0.2089,0.086824
-0.022736,-0.10575,0.015412,-0.018463,0.02182,-0.011139,0.11154,0.051728
-0.00015259,-0.12741,-0.00076295,0.019989,0.095369,-0.08072,-0.309,-0.025788
0.019989,-0.11978,0.0038148,-0.081025,0.25803,-0.10605,-0.439,-0.062104
-0.0074769,-0.070649,-0.011444,-0.11032,0.049287,0.037385,0.031891,-0.056001
-0.010834,-0.081941,0.0013733,-0.075532,-0.13413,0.055695,0.13199,-0.041352
0.011749,-0.098116,-0.012055,-0.048371,-0.091402,0.022736,0.081636,-0.020905
0.051118,-0.12833,0.00076295,0.023957,0.027924,0.039216,0.072786,-0.0056458
0.053864,-0.10178,-0.041962,0.0032044,0.068208,0.026398,0.052338,-0.032807
0.017853,-0.044099,-0.066682,-0.08072,0.093538,-0.016327,0.005951,-0.065461
0.0053407,-0.027314,-0.081331,-0.048676,0.0096132,-0.0013733,0.02182,-0.032502
-0.053254,0.036164,-0.12161,-0.13107,-0.0383,-0.0028992,0.030365,0.0099184
-0.078889,0.056001,-0.12436,-0.17197,0.030365,-0.044099,0.020294,0.047456
-0.073396,0.033417,-0.12375,-0.056916,0.044404,-0.02182,-0.022126,0.057832
-0.14481,0.065461,-0.11093,-0.17288,0.0056458,-0.01297,-0.035248,0.063935
-0.12253,0.043183,-0.11215,-0.13077,0.0086976,0.0013733,0.086213,0.12314
-0.091402,0.021515,-0.095369,-0.082856,-0.02121,0.034943,0.13687,0.13931
-0.050507,-0.024872,-0.03769,-0.048371,-0.062715,0.065766,0.1091,0.10788
-0.026398,-0.056306,-0.05478,-0.049592,-0.17044,0.082246,0.095979,0.066377
-0.018463,-0.0019837,-0.013886,-0.068513,-0.14267,0.044709,0.13321,0.033112
0.011139,-0.00015259,0.015412,-0.049592,0.0096132,0.030365,0.13382,0.014801
0.025788,-0.091707,0.033722,-0.041657,0.082246,0.054475,0.076448,-0.017243
0.057832,-0.12894,-0.0044251,-0.032807,0.071565,0.034028,0.0038148,-0.05539
0.067903,-0.14786,0.0041199,-0.033112,0.083467,0.00076295,-0.11429,-0.06302
0.046235,-0.16281,-0.002594,-0.083467,0.09781,-0.035554,-0.38773,-0.1091
0.039216,-0.2089,-0.01297,-0.061494,0.070039,-0.024262,-0.22141,-0.08957
0.028229,-0.15183,-0.11612,-0.045319,0.035248,-0.0053407,0.026093,-0.059663
-0.033112,0.041657,-0.12161,-0.095064,0.059968,-0.0068666,0.069734,-0.092317
-0.061494,0.052338,-0.10025,-0.11337,0.045319,-0.011444,0.15122,-0.072175
-0.084077,0.053559,-0.10727,-0.12985,-0.0074769,-0.07126,0.2031,-0.013581
-0.069734,0.024262,-0.10605,-0.077363,-0.016938,-0.08957,0.10361,0.041047
-0.061494,0.016022,-0.11521,-0.11185,-0.015717,-0.057221,-0.35966,0.036164
-0.099031,0.089876,-0.11673,-0.11337,-0.016632,0.040131,-0.46555,-0.017548
-0.076143,0.048371,-0.074311,-0.13931,-0.14755,0.3563,-0.00015259,0.027619
-0.051728,-0.005951,-0.076448,-0.10117,-0.18448,0.41672,0.15488,0.10666
-0.057221,-0.012055,-0.05417,-0.048371,-0.0086976,-0.30716,0.085603,0.12528
-0.042878,-0.058747,0.00015259,0.037079,0.095369,-0.34714,0.15915,0.12833
0.0071717,-0.1088,0.036164,-0.047761,0.1265,0.040131,0.15915,0.099947
0.041962,-0.12955,0.034943,-0.087129,0.087434,0.02884,0.18448,0.027924
0.015412,-0.11093,0.00076295,-0.077058,0.035859,0.036469,0.22171,-0.023651
-0.0041199,-0.11826,-0.0016785,-0.059358,0.0099184,0.040436,0.11185,-0.048676
0.0099184,-0.087434,-0.023651,-0.037385,0.0090028,0.0090028,-0.31357,-0.087129
-0.00015259,-0.030671,-0.070954,-0.036774,0.033722,-0.0056458,-0.60105,-0.077058
-0.048676,0.034333,-0.11948,-0.11368,0.04593,0.028534,0.053254,-0.0053407
-0.066072,0.067597,-0.13077,-0.094453,0.027008,0.015106,0.22751,0.023957
-0.057832,-0.005951,-0.098421,-0.045319,-0.0065614,0.016327,0.085603,0.023041
-0.093843,0.054475,-0.14511,-0.15061,0.011749,0.0010681,0.064546,0.038911
-0.06363,-0.015717,-0.098116,-0.10269,-0.009308,0.0032044,0.048066,0.079194
-0.04715,-0.019684,-0.065766,-0.15702,-0.046845,0.018769,0.058442,0.085908
-0.041352,-0.016022,-0.093233,-0.21225,-0.050813,0.018769,0.04715,0.034943
-0.01236,-0.043793,-0.070344,0.20523,-0.04654,0.017243,0.045014,0.035859
-0.012665,-0.0044251,-0.064851,-0.12711,0.021515,0.0047303,0.041962,0.019684
-0.025177,-0.029755,-0.010529,-0.15366,0.032197,-0.0074769,0.017548,0.010529
-0.00076295,-0.088045,0.020905,-0.045319,-0.077363,0.056306,-0.0047303,0.031891
0.042878,-0.1268,0.022736,0.045319,0.016938,-0.0056458,-0.095064,-0.014496
0.059968,-0.15793,0.017853,-0.0206,0.073396,-0.025788,-0.061189,-0.055085
-0.013581,-0.10758,-0.015717,-0.090486,0.10819,-0.032807,-0.073701,-0.08072
-0.033722,-0.056611,-0.016632,-0.090486,0.045319,0.0068666,0.04593,-0.0206
-0.0056458,-0.070039,-0.048066,-0.078279,-0.019074,0.048981,0.094759,-0.023041
-0.02121,-0.044099,-0.052949,-0.040742,0.015106,0.0013733,0.017243,-0.050813
-0.067597,0.017243,-0.12985,-0.066377,0.053864,-0.03006,0.0065614,-0.063935
-0.08011,0.044099,-0.12039,-0.14145,0.033112,-0.0016785,0.045319,-0.042573
-0.08896,0.024262,-0.15305,-0.13687,-0.024567,0.020294,0.023346,0.044099
-0.06302,0.019684,-0.12436,-0.11521,-0.082246,0.037995,-0.027619,0.087739
-0.077058,0.049592,-0.10758,-0.074922,-0.085298,0.025483,0.058442,0.085603
-0.087434,0.055695,-0.094453,-0.066682,-0.037385,-0.016022,0.041962,0.077974
-0.08072,0.034028,-0.065156,-0.077058,0.031281,0.018463,0.027619,0.049592
-0.020294,-0.02182,-0.049287,-0.069123,0.086519,0.059663,0.057221,0.078584
-0.017548,-0.030976,-0.037995,-0.15488,0.052033,-0.0038148,0.018769,0.06302
0.0099184,-0.069429,-0.0077821,-0.12345,-0.052644,0.010529,0.0086976,0.021515
0.051728,-0.13169,0.023346,0.015717,-0.037385,0.0080873,-0.044709,-0.022431
0.058442,-0.13596,0.0086976,0.043488,0.035554,-0.032197,-0.093843,-0.04654
0.050202,-0.13535,0.034333,-0.089876,0.073091,-0.012055,-0.033112,-0.098421
0.053559,-0.20188,0.053864,-0.047456,0.029755,0.041657,0.091402,-0.087434
0.024262,-0.14786,-0.061189,-0.1088,0.012665,0.018769,0.0016785,-0.068208
0.027619,-0.10422,-0.074006,0.2623,0.03769,-0.055085,-0.088045,-0.028229
-0.029145,0.0041199,-0.070344,-0.31601,0.041962,-0.076143,-0.056916,-0.0383
-0.079194,0.080415,-0.11307,-0.25406,-0.0206,0.072786,0.019989,-0.0050355
-0.097505,0.093843,-0.13657,-0.0206,-0.010834,0.052338,0.049897,0.051728
-0.087739,0.092012,-0.1323,-0.034943,-0.012055,0.023346,0.036164,0.076448
-0.07187,0.084382,-0.13138,-0.059663,-0.0013733,0.0050355,0.020905,0.066072
-0.093538,0.065461,-0.10971,-0.14389,0.019379,-0.0047303,0.01297,0.054475
-0.075227,-0.00015259,-0.092622,-0.077058,0.0019837,-0.0035096,0.016938,0.061189
-0.045319,-0.0383,-0.052949,-0.019074,-0.040436,0.010529,0.030365,0.091707
-0.032807,-0.024872,-0.045624,-0.18021,-0.0047303,-0.0047303,0.0041199,0.047456
-0.00045777,-0.086519,-0.00045777,-0.042573,-0.016327,0.016022,0.0056458,0.011749
0.023346,-0.099947,0.0099184,-0.022431,-0.040436,0.035554,0.011139,-0.00045777
0.052033,-0.11826,-0.010834,-0.1384,0.037079,-0.010224,-0.020905,-0.029755
0.067292,-0.12985,0.0044251,-0.0053407,0.015412,0.010834,0.0068666,-0.053254
0.024262,-0.08072,-0.005951,0.037079,0.0050355,0.024872,0.043488,-0.071565
0.024872,-0.095979,-0.0019837,-0.079805,0.078279,0.018769,0.05417,-0.04715
-0.0032044,-0.083467,-0.022736,-0.14603,0.046845,0.027314,0.062409,-0.042573
-0.042573,-0.038605,-0.059052,-0.073091,-0.018158,0.024872,0.068513,-0.029145
-0.052033,-0.047761,-0.099031,-0.020905,-0.00015259,0.016022,0.052338,0.011749
-0.045319,-0.00076295,-0.10697,-0.059663,0.052949,-0.0090028,-0.0074769,0.023957
-0.068208,-0.0022889,-0.1146,-0.073091,0.077363,-0.050202,-0.14145,-0.014191
-0.10452,0.040131,-0.10941,-0.082856,0.0383,-0.066377,-0.18265,-0.016632
-0.12253,0.029145,-0.092927,-0.070649,-0.010834,-0.029755,0.0028992,0.074311
-0.12009,0.058137,-0.10727,-0.16739,-0.032197,0.011139,0.1265,0.10575
-0.12375,0.080415,-0.11521,-0.15976,-0.083162,0.051118,0.13596,0.11154
-0.11185,0.037995,-0.068818,-0.11948,-0.057527,0.068208,-0.059358,0.15152
-0.052033,-0.026093,-0.026398,-0.095369,0.033112,0.075227,-0.081941,0.18845
0.015412,-0.081941,-0.058442,0.02945,0.0077821,0.071565,0.14084,0.1091
0.039216,-0.06424,-0.010224,-0.040131,-0.038911,0.024567,0.075227,0.0077821
0.035554,-0.085908,-0.0038148,-0.12772,-0.0044251,-0.016938,-0.0028992,-0.048371
0.079194,-0.17472,0.023957,0.014496,0.010834,-0.030976,-0.013581,-0.08835
0.084688,-0.15366,0.022736,-0.044709,0.13931,-0.0013733,-0.032502,-0.10147
0.059663,-0.11337,0.014496,-0.10147,0.10178,0.018158,-0.017548,-0.15061
0.034333,-0.121,-0.01297,-0.088655,-0.012055,-0.027314,-0.027619,-0.14023
0.0047303,-0.10575,-0.041657,-0.0090028,-0.010224,-0.010834,0.012055,-0.12467
0.0090028,-0.0206,-0.15915,0.0050355,0.013275,-0.0071717,0.021515,-0.076143
-0.059968,0.075227,-0.15335,-0.18296,0.063325,-0.034943,-0.029755,-0.040742
-0.066987,0.095979,-0.11704,-0.097505,-0.019074,-0.00076295,-0.01236,0.029145
-0.096895,0.12833,-0.13779,-0.20493,-0.065766,0.010224,-0.041352,0.06302
-0.11795,0.086213,-0.1088,-0.15,-0.073396,0.034638,-0.019379,0.066377
-0.10391,0.017243,-0.081331,-0.023651,-0.0972,0.068513,0.10361,0.15671
-0.14633,0.067292,-0.086824,-0.044404,0.024262,-0.0086976,0.058137,0.13504
-0.087739,-0.050813,-0.00045777,-0.032807,0.053254,0.00015259,0.04715,0.14694
-0.05478,-0.11002,-0.037079,-0.15122,0.019379,0.01297,0.035859,0.08011
-0.0083925,-0.17075,-0.0038148,-0.11765,0.023346,0.014801,-0.02945,-0.0071717
0.057832,-0.16587,-0.0062562,-0.015106,-0.0071717,0.032502,-0.084993,-0.020294
0.045014,-0.062104,-0.0016785,-0.0013733,0.0028992,0.009308,-0.064851,-0.04715
0.027008,-0.041352,-0.018158,-0.055085,0.049287,-0.00076295,0.020905,-0.059663
0.037995,-0.069429,-0.022431,-0.052338,0.053864,0.0099184,0.084688,-0.067597
0.038911,-0.103,-0.01297,-0.056611,0.031586,0.039216,0.11093,-0.051423
0.029145,-0.074006,-0.053254,-0.056916,0.035248,0.017853,0.06363,-0.019379
0.027314,-0.081636,-0.044099,-0.05539,0.030365,-0.009308,0.016938,-0.0083925
-0.016938,-0.060578,-0.088045,-0.081331,0.023651,-0.033722,-0.026398,0.011749
-0.042878,-0.0041199,-0.1384,-0.1088,0.035859,-0.055085,-0.076753,0.0035096
-0.058137,0.032502,-0.11643,-0.065156,-0.01297,-0.023041,-0.079805,0.014801
-0.10361,0.099641,-0.13779,-0.11948,-0.01297,0.00076295,-0.010224,0.023957
-0.10819,0.060273,-0.11063,-0.13107,-0.013581,0.0083925,0.054475,0.02884
-0.12467,0.042573,-0.10025,-0.10086,-0.036774,-0.00076295,0.035859,0.03769
-0.095369,0.03769,-0.064851,-0.092927,-0.022431,-0.0022889,0.02884,0.059052
-0.06302,-0.01236,-0.039826,-0.060883,-0.035859,0.02945,0.070039,0.094148
-0.04715,-0.044404,-0.023651,-0.082551,-0.030365,0.06363,0.086519,0.10544
-0.022431,-0.078584,-0.0074769,-0.087739,0.0019837,0.038605,0.070649,0.08011
-0.00076295,-0.10086,-0.0013733,-0.030976,0.0099184,0.023346,0.070039,0.042267
0.03006,-0.11429,0.0019837,0.019074,0.043793,0.016938,0.1622,-0.0096132
-0.0019837,-0.096284,0.0016785,-0.05478,0.076448,-0.0013733,0.13657,-0.085908
-0.018463,-0.090486,-0.00076295,-0.051118,0.041657,0.023957,-0.10605,-0.075837
0.0068666,-0.11063,-0.018769,-0.068818,0.0080873,0.025177,-0.57786,-0.034943
0.024872,-0.052644,-0.075227,-0.11582,0.035554,0.0053407,-0.18204,-0.033112
0.043183,-0.08072,-0.08072,-0.10269,-0.023041,0.057221,0.25315,-0.0013733
0.011139,-0.039521,-0.10361,-0.061494,-0.048981,0.032807,0.068513,-0.024567
-0.02121,0.002594,-0.086824,-0.057221,0.0071717,-0.024872,0.027008,-0.0096132
-0.043488,0.027924,-0.11887,-0.052644,0.056306,-0.050202,0.039216,-0.020905
-0.084077,0.088655,-0.14969,-0.12345,0.057221,-0.059358,0.053559,-0.0074769
-0.08896,0.092317,-0.11612,-0.16068,0.12894,-0.093843,0.07187,0.028229
-0.099031,0.06363,-0.099031,-0.070649,0.069429,-0.0022889,0.040131,0.068208
-0.079194,0.033722,-0.072786,-0.12711,-0.21622,0.12528,-0.12375,0.095369
-0.066682,0.0016785,-0.069429,-0.15518,-0.069123,0.024262,-0.023346,0.057832
-0.037079,-0.061799,0.052644,-0.033722,0.0013733,0.043183,0.25559,0.067597
0.03006,-0.20188,0.059052,-0.0090028,0.023957,0.05539,0.23758,0.076448
0.039216,-0.1915,-0.015717,-0.027008,0.076143,0.042573,0.21561,0.009308
0.041962,-0.14389,-0.0016785,-0.07248,0.089876,0.01236,-0.015412,-0.04593
0.029755,-0.073701,-0.030976,-0.030976,-0.0019837,-0.055695,-0.47349,-0.067903
0.033722,-0.047761,-0.014191,-0.035248,-0.12314,-0.075227,-0.47074,-0.090181
0.016938,-0.061799,-0.034028,-0.046235,-0.069734,0.0050355,0.092317,-0.056001
-0.035248,-0.0028992,-0.084688,-0.081331,0.06424,0.0062562,0.27176,-0.057527
-0.059052,0.029145,-0.11887,-0.078584,0.085298,-0.0086976,-0.12833,-0.052033
-0.074006,0.014191,-0.11673,-0.089265,0.031586,-0.019379,-0.45884,-0.014496
-0.099031,0.03006,-0.121,-0.15213,0.019379,0.0071717,0.018769,-0.0096132
-0.10727,0.033722,-0.11826,-0.11704,-0.0071717,0.012055,0.22751,0.024872
-0.12009,-0.00015259,-0.081025,-0.078584,-0.04593,0.027924,0.15152,0.088655
-0.08072,-0.03769,-0.091402,-0.16068,-0.02945,0.027008,0.14267,0.10758
-0.039521,-0.0065614,-0.095064,-0.052338,-0.047456,0.032197,0.095674,0.10025
-0.012055,-0.0083925,-0.072175,-0.059358,-0.011444,0.030976,0.072175,0.068208
-0.051728,0.030671,-0.041962,-0.18814,0.049897,0.024872,0.049897,0.039521
0.0028992,-0.076448,-0.0022889,-0.17411,0.025483,0.027924,0.024262,0.045014
0.094759,-0.24643,0.069123,0.36362,-0.0013733,0.040131,0.07187,0.033112
0.068513,-0.121,0.0077821,-0.1976,0.084077,-0.015106,0.02945,-0.063325
0.060578,-0.11673,-0.0077821,-0.045319,0.034333,0.010834,0.018769,-0.085298
0.041657,-0.032502,-0.041047,-0.058442,-0.020294,0.024262,0.015717,-0.096284
0.027924,-0.060883,-0.025483,-0.069429,0.057221,-0.015106,-0.030671,-0.11612
0.002594,-0.059358,-0.05478,-0.051118,0.031586,0.0053407,-0.027619,-0.083162
-0.0050355,-0.03769,-0.084993,-0.072786,0.037995,-0.012665,-0.009308,-0.035554
-0.057221,0.018158,-0.11765,-0.08835,0.016938,-0.019684,0.019684,0.017243
-0.099336,0.035859,-0.12253,-0.056611,-0.018463,0.0044251,0.057527,0.06363
-0.12802,0.077974,-0.12894,-0.12161,0.033417,0.019379,0.052949,0.10605
-0.12955,0.092317,-0.12284,-0.085298,0.011444,-0.025483,0.043183,0.12619
-0.10422,0.034028,-0.10819,-0.030365,-0.0383,-0.060273,0.06424,0.12833
-0.10147,0.022736,-0.066987,-0.081331,0.00076295,-0.0056458,0.0074769,0.11063
-0.082246,-0.00076295,-0.058137,-0.22873,0.00045777,0.090486,-0.071565,0.093538
-0.039521,-0.041962,-0.042573,-0.18265,-0.025177,0.24735,0.0383,0.08835
-0.0086976,-0.085908,0.002594,-0.039216,-0.11368,0.38499,0.039216,0.017243
-0.017243,-0.071565,0.0080873,-0.075227,0.015717,-0.14145,-0.093233,-0.056611
0.031891,-0.14084,0.0013733,0.060273,0.062104,-0.48753,-0.039826,-0.031586
0.056306,-0.11978,0.0016785,-0.089265,0.031891,-0.0038148,0.053864,-0.04593
0.025483,-0.095369,0.0074769,-0.027314,0.050202,0.017243,0.0028992,-0.11856
0.017548,-0.066682,-0.026398,-0.12345,0.016938,0.027314,0.011444,-0.070039
0.019989,-0.076753,-0.022431,-0.06363,0.019379,0.057221,0.028229,-0.022431
0.075532,-0.13962,-0.029145,0.052949,-0.030365,0.057527,0.049592,0.017243
-0.0086976,-0.029755,-0.10361,-0.1268,0.075227,-0.032197,-0.027619,-0.059663
-0.05478,0.022431,-0.1384,-0.016938,0.057527,-0.04654,-0.01236,-0.040436
-0.06363,0.044404,-0.13748,-0.050202,-0.0206,0.009308,0.068513,0.023346
-0.051423,0.0019837,-0.12863,-0.24918,-0.010834,0.022431,0.0090028,0.0035096
-0.10513,0.067292,-0.12711,-0.15091,-0.016938,-0.0086976,0.0028992,0.041352
-0.13962,0.083162,-0.098726,-0.05539,-0.026703,0.018769,0.019989,0.069429
-0.13657,0.044099,-0.093538,-0.072175,-0.032502,0.048371,0.033112,0.10697
-0.079805,-0.016327,-0.024567,-0.060883,0.0080873,-0.0035096,-0.026703,0.10666
-0.063325,-0.026398,-0.052644,-0.083467,0.010529,-0.02182,-0.025177,0.062104
-0.036469,-0.026093,-0.034333,-0.041657,0.013886,0.015412,0.0071717,0.056611
0.0065614,-0.078279,0.03006,-0.13901,-0.018463,0.04654,0.077668,0.06302
0.048066,-0.18662,0.032502,-0.0795,-0.026398,0.026703,0.10178,-0.0056458
0.067903,-0.16953,-0.0047303,0.1735,0.034333,0.0044251,0.020294,-0.067903
0.068513,-0.11276,-0.014496,-0.2153,0.10208,0.020905,-0.19425,-0.07126
0.069734,-0.094148,-0.0099184,-0.039216,0.056306,0.043488,-0.099336,-0.066072
0.049287,-0.085908,-0.056611,-0.009308,0.040436,-0.013581,-0.048676,-0.10452
0.0038148,0.0056458,-0.10544,-0.1268,0.055085,-0.010224,-0.08957,-0.12619
-0.023651,0.0080873,-0.084077,-0.092317,0.022126,0.018463,0.031586,-0.053864
-0.059052,0.02121,-0.099031,-0.041657,-0.015412,0.0041199,0.043488,0.0041199
-0.11521,0.075227,-0.11612,-0.1149,-0.0019837,-0.00015259,0.035859,0.046845
-0.11643,0.043793,-0.12253,-0.087739,-0.022431,-0.0032044,0.055695,0.11063
-0.081636,-0.020905,-0.084077,-0.10544,-0.041657,-0.0056458,0.060578,0.12833
-0.053864,-0.061494,-0.067292,-0.074311,-0.019074,0.0086976,0.063935,0.083772
-0.048371,-0.0028992,-0.11124,-0.13687,-0.01297,0.014496,0.066072,0.053559
-0.047761,-0.010529,-0.061189,-0.074617,-0.0071717,-0.013886,0.0071717,-0.017548
-0.023346,-0.048676,-0.016327,-0.034638,-0.027008,-0.0086976,0.011139,-0.014191
-0.048981,-0.026703,-0.035859,-0.10452,0.02121,0.019989,0.031586,0.035554
0.031586,-0.095369,0.021515,-0.0383,0.00076295,0.059052,0.055085,0.084077
0.041962,-0.087739,0.026703,-0.05417,0.0038148,0.018158,0.036774,0.014801
0.026703,-0.062104,0.018463,-0.062409,0.051423,-0.033112,-0.029755,-0.075837
0.005951,-0.077974,-0.059358,-0.095369,0.027314,0.014191,-0.016632,-0.06302
0.014191,-0.084382,-0.05478,-0.099031,0.015412,0.045624,0.027619,-0.04654
-0.039826,-0.056916,-0.034943,-0.025177,0.002594,0.049287,0.045624,-0.010224
-0.076753,-0.051423,-0.037079,0.013886,0.0206,0.041657,0.030365,0.021515
-0.0795,-0.078279,-0.075837,-0.037385,0.10025,0.009308,0.058442,0.083772
-0.07126,-0.027619,-0.13901,-0.16556,0.07126,0.0010681,0.060273,0.093538
-0.075837,0.058137,-0.1387,-0.19486,-0.013581,0.029145,0.057527,0.07126
-0.075532,0.087739,-0.12345,-0.058747,-0.0383,0.066682,0.11826,0.077974
-0.0795,0.070344,-0.10208,-0.16526,-0.0096132,0.035554,0.042267,0.061189
-0.070954,0.039216,-0.066987,-0.08835,0.025177,-0.071565,-0.069734,0.022126
-0.044709,0.013581,-0.078584,-0.051728,-0.00015259,-0.069123,-0.10361,0.016632
-0.024262,0.0016785,-0.04654,-0.035554,-0.026398,-0.033722,-0.052949,0.015106
0.0019837,-0.075837,-0.020294,-0.10788,0.0071717,-0.039521,0.034028,-0.009308
0.031891,-0.10605,-0.02182,-0.075532,-0.0010681,-0.0068666,0.021515,-0.025788
0.033722,-0.11978,-0.00015259,0.027314,-0.088045,0.12192,-0.073701,-0.044404
0.077363,-0.1738,0.050813,-0.021515,-0.08835,0.10727,-0.099336,-0.039216
0.061189,-0.16159,0.03006,-0.065156,-0.0013733,0.033112,-0.01297,-0.081331
0.049592,-0.10361,-0.027924,-0.070649,0.13443,-0.0010681,0.017548,-0.083467
0.024872,-0.053559,-0.044709,-0.026703,0.16281,-0.068208,-0.014496,-0.06363
0.058442,-0.081331,-0.027008,-0.069123,0.074617,-0.066072,-0.014496,-0.072786
0.0010681,-0.043488,-0.051118,-0.16068,0.045014,-0.017853,0.002594,-0.071565
-0.050507,-0.022126,-0.14878,-0.12039,-0.0096132,0.0019837,0.0013733,-0.029755
-0.06302,0.0019837,-0.14237,-0.051118,-0.057221,0.022126,0.037385,0.030365
-0.099336,0.072175,-0.13687,-0.14176,0.0068666,0.00045777,0.047456,0.037995
-0.12863,0.084688,-0.12985,-0.10666,-0.015412,0.029145,0.07248,0.051118
-0.12406,0.07248,-0.10727,-0.086519,-0.04593,0.03006,0.061799,0.07126
-0.10452,0.076753,-0.099641,-0.13718,-0.030365,0.011139,0.048981,0.095979
-0.078889,0.027314,-0.037995,-0.059663,-0.035248,0.023346,0.020294,0.093538
-0.063325,-0.011749,-0.04593,-0.074311,-0.015106,0.0077821,-0.013581,0.076448
-0.030976,-0.040742,-0.010529,-0.025177,0.016022,0.011139,-0.0096132,0.07248
-0.023041,-0.074006,0.00076295,-0.12192,0.042878,0.00045777,-0.00045777,0.061189
-0.0068666,-0.10666,0.0065614,-0.061494,0.029145,0.018158,0.03006,0.040131
0.016632,-0.14084,0.0071717,-0.015412,-0.0068666,0.051423,0.043793,0.0050355
0.010529,-0.13443,0.0016785,-0.034943,0.035859,0.023957,0.034333,-0.014496
0.0099184,-0.11582,-0.018769,-0.028229,0.048371,0.018769,0.042878,-0.014801
0.017853,-0.099641,-0.033112,-0.014496,0.043793,0.036164,0.059968,-0.0065614
0.0090028,-0.079805,-0.084382,-0.090791,0.054475,0.021515,0.069429,-0.020905
-0.019074,-0.0028992,-0.10697,-0.11978,0.035554,0.0028992,0.052033,-0.00045777
-0.045014,0.058747,-0.11704,-0.1091,0.0047303,-0.017548,0.017548,0.0056458
-0.067597,0.032502,-0.1207,-0.083467,-0.020905,-0.019379,-0.0071717,0.040131
-0.10025,0.052033,-0.15396,-0.12711,-0.027008,0.00015259,-0.038911,0.056611
-0.095369,0.048371,-0.12314,-0.10941,-0.033417,0.031281,0.0028992,0.05539
-0.08957,0.058747,-0.090181,-0.10727,-0.037385,0.043183,0.016632,0.055085
-0.055695,0.0056458,-0.066072,-0.045624,-0.022126,0.0090028,-0.078279,0.019684
-0.015106,-0.051423,-0.025788,-0.10178,0.0068666,-0.0047303,-0.039521,-0.0013733
-0.0056458,-0.050813,-0.015717,-0.073091,0.016938,0.0099184,0.044404,0.0047303
0.032807,-0.083772,0.002594,-0.017548,-0.0013733,-0.0077821,-0.0013733,-0.0068666
0.058137,-0.12802,0.022126,-0.021515,0.039521,-0.04654,-0.055695,-0.075227
0.062409,-0.11643,-0.0016785,-0.00045777,0.058137,-0.025177,-0.0083925,-0.10147
0.057832,-0.12253,0.014191,-0.10636,0.013886,-0.015717,0.0019837,-0.093538
0.027008,-0.098421,-0.012665,-0.057527,0.018769,0.0090028,-0.13016,-0.075837
0.016022,-0.093843,0.0044251,-0.0019837,0.069429,0.013275,-0.25895,-0.051728
-0.026398,-0.052338,-0.060273,-0.13748,0.12039,0.030671,0.009308,-0.026398
-0.033722,-0.025483,-0.081025,-0.06302,0.086213,0.027314,0.13474,0.027314
-0.041657,-0.0035096,-0.11337,-0.069123,0.063325,-0.014801,0.057221,0.037385
-0.090791,0.04593,-0.14389,-0.13657,0.070039,-0.0016785,0.039216,0.028229
-0.099641,0.043183,-0.11276,-0.041047,-0.2092,0.10147,0.096284,0.085908
-0.11643,0.08011,-0.1387,-0.16983,-0.072786,0.0013733,0.08072,0.1088
-0.095064,0.05539,-0.10361,-0.14054,0.020905,-0.017548,0.077668,0.095369
-0.066072,-0.010834,-0.086519,0.033112,-0.096284,0.044099,0.10666,0.094148
-0.065461,0.0041199,-0.081331,-0.092622,0.0074769,0.016022,0.11002,0.059968
-0.02884,-0.014496,-0.024262,-0.16312,0.070344,0.041352,0.12528,0.062104
0.012665,-0.061494,-0.0062562,-0.060883,-0.048676,0.039521,-0.038605,0.051423
0.033722,-0.067903,0.012665,-0.21836,-0.029755,-0.02945,-0.29129,-0.0090028
0.012055,-0.11887,0.031586,-0.012665,-0.018463,-0.024872,-0.06363,-0.043488
0.016632,-0.14755,0.022736,0.17411,-0.076753,0.026398,0.068208,-0.04593
0.019989,-0.1207,-0.005951,-0.11704,0.090486,-0.0028992,0.029145,-0.045319
0.03769,-0.10452,-0.034638,-0.066377,0.060578,0.039216,0.039216,-0.033112
0.005951,-0.055695,-0.057832,-0.12161,0.051118,0.019074,0.0010681,-0.07187
-0.025788,0.0077821,-0.10605,-0.064546,0.042267,0.034943,0.011749,-0.087129
-0.04593,-0.0013733,-0.087434,-0.051728,0.023651,0.023041,0.026093,-0.056611
-0.059663,-0.0035096,-0.11917,-0.064851,0.036774,-0.01297,-0.0062562,-0.009308
-0.069429,0.0083925,-0.1326,-0.085603,0.0047303,-0.014801,0.028229,0.041047
-0.073701,0.020294,-0.10117,-0.12955,0.013275,-0.0086976,0.044099,0.055695
-0.089876,0.0206,-0.076143,-0.103,0.0013733,-0.0022889,0.024262,0.075532
-0.06302,-0.052033,-0.10361,-0.048371,-0.022431,0.010834,0.050507,0.07248
-0.089876,0.0041199,-0.10544,-0.11734,-0.01236,-0.0086976,0.057832,0.07248
-0.091402,0.060273,-0.073396,-0.18875,0.00076295,-0.032197,0.013581,0.066682
-0.085603,0.07126,-0.032807,-0.10544,-0.067903,0.027314,0.02121,0.074617
-0.030671,-0.025483,0.017548,-0.00015259,-0.054475,0.056611,0.055085,0.088655
0.052949,-0.12833,0.0080873,0.013275,0.0099184,0.040436,0.099947,0.103
0.039216,-0.13169,0.034943,-0.10086,0.059663,-0.0028992,0.091707,-0.014801
0.041962,-0.14939,0.0035096,-0.042878,0.045624,-0.0071717,0.059663,-0.057832
0.094759,-0.2034,-0.075227,0.061189,0.035859,0.0053407,-0.0028992,-0.049897
0.057527,-0.16892,0.05417,0.019379,0.091707,-0.045319,-0.14328,-0.10117
0.014801,-0.10025,-0.018769,-0.17472,0.084077,-0.049287,-0.0047303,-0.11398
-0.052033,0.015412,-0.087129,-0.12284,0.031891,-0.010224,-0.27573,-0.090791
-0.043793,0.027314,-0.11276,-0.12039,0.02884,0.031281,-0.48753,-0.048371
-0.071565,0.064546,-0.12711,-0.077058,0.03769,0.05478,0.11795,-0.002594
-0.057221,0.073396,-0.14481,0.015717,-0.059358,0.074311,0.14328,0.034333
-0.041657,0.030671,-0.13352,-0.17502,-0.043793,0.0071717,0.028229,0.039521
-0.057832,0.066682,-0.13962,-0.2504,-0.010834,-0.044099,0.11612,0.060273
-0.074617,0.081331,-0.096895,-0.083467,-0.023346,0.023041,0.18021,0.081941
-0.059968,-0.011749,0.051728,-0.029145,-0.045624,0.13169,0.10056,0.093843
-0.048981,-0.07187,-0.032807,-0.036774,-0.0206,0.20035,0.025177,0.092622
-0.02945,-0.063935,-0.074617,-0.080415,-0.036469,0.28672,0.049287,0.087434
-0.017548,0.0038148,-0.027924,-0.068513,0.052949,-0.25895,0.023957,0.063325
-0.022126,-0.044709,-0.005951,-0.080415,0.055085,-0.42741,-0.081941,0.027314
-0.023041,-0.082246,0.0013733,-0.035554,0.0028992,0.02884,-0.084077,0.027619
0.013275,-0.1796,0.03769,0.017853,0.033417,0.048676,0.15,0.016022
0.033417,-0.20401,0.012055,-0.02884,0.068208,0.010834,0.087434,-0.042878
0.048981,-0.17868,-0.024872,-0.056916,0.077363,0.011444,0.0038148,-0.11246
0.036164,-0.08896,-0.094148,-0.064851,0.033417,0.026398,0.0047303,-0.11826
-0.021515,0.058137,-0.093538,-0.10544,0.015717,0.010834,-0.13626,-0.093843
0.00045777,-0.02182,-0.11734,-0.042878,-0.014191,0.016022,-0.18509,-0.052949
-0.05478,0.057527,-0.15335,-0.18784,0.023041,-0.00076295,0.0071717,-0.019379
-0.099947,0.073701,-0.10361,-0.13687,0.023346,-0.033722,0.0068666,-0.00045777
-0.1146,0.078279,-0.10819,-0.12955,-0.069429,0.0044251,-0.19059,0.045624
-0.091096,0.016022,-0.066377,-0.055695,-0.081636,0.055085,0.080415,0.074311
-0.066987,-0.012055,-0.10086,-0.044099,-0.033722,0.024262,0.18936,0.081331
-0.072786,0.019379,-0.094453,-0.11093,0.032807,-0.014801,0.077363,0.094148
-0.035554,0.0074769,-0.041657,-0.10239,-0.012055,0.027314,0.07248,0.1091
-0.022736,-0.066682,-0.010834,-0.052338,-0.039521,0.0383,0.047761,0.092622
-0.0035096,-0.092927,-0.010224,-0.1149,0.0056458,0.015412,0.013275,0.046235
0.0013733,-0.093538,0.0044251,-0.031281,0.0086976,0.02121,0.03006,0.019379
-0.0206,-0.092927,0.022126,-0.016938,0.017243,0.046235,0.091402,0.0028992
0.0041199,-0.11826,0.010529,-0.02884,0.07248,0.027314,0.059052,-0.02884
0.02182,-0.11185,0.0041199,-0.041047,0.080415,0.010224,0.023041,-0.052033
0.027314,-0.090791,-0.048676,-0.074311,0.059358,0.016327,0.0041199,-0.08835
-0.00076295,-0.04654,-0.053254,-0.12955,0.038911,0.019379,0.02884,-0.075227
-0.0044251,-0.014801,-0.092927,0.2501,0.030976,0.016632,0.040131,-0.020294
-0.033417,-0.005951,-0.11826,-0.23514,0.02182,-0.018769,-0.048676,-0.041657
-0.059358,0.048676,-0.13626,-0.30014,0.005951,-0.038911,-0.095369,-0.02945
-0.053864,0.015717,-0.11154,-0.048371,-0.048371,0.032502,-0.034943,0.020905
-0.07126,0.0096132,-0.10422,-0.014496,-0.048676,0.041657,0.025177,0.051423
-0.0795,0.034028,-0.10239,-0.064546,-0.0056458,-0.012055,0.0053407,0.07187
-0.068818,0.035554,-0.11276,-0.14755,0.029145,-0.033112,-0.010529,0.10178
-0.068208,-0.002594,-0.066987,-0.17502,-0.019379,-0.0080873,-0.00045777,0.087434
-0.051423,-0.031586,-0.015717,-0.10544,-0.047456,-0.015717,-0.01236,0.07248
-0.024262,-0.075837,0.0099184,-0.014191,-0.009308,-0.0013733,-0.025483,0.081331
0.02121,-0.099641,-0.0019837,-0.0090028,-0.013581,0.050507,0.048981,0.093538
0.026093,-0.079805,-0.019684,-0.010529,0.039521,0.023957,0.10269,0.047761
0.029755,-0.10758,0.026703,-0.12497,0.055085,0.02884,0.073701,0.010834
0.0077821,-0.077974,-0.029755,-0.096895,0.065461,0.026703,0.056611,-0.0383
0.0010681,-0.094759,-0.0022889,-0.0053407,0.0383,0.048066,0.030976,-0.065461
0.0019837,-0.082551,-0.032502,-0.020294,0.026093,0.04654,0.0032044,-0.10452
-0.0074769,-0.050813,-0.07187,-0.10849,0.042878,0.012665,-0.02121,-0.11582
-0.040742,-0.030365,-0.084382,-0.036469,0.019684,-0.0047303,-0.0035096,-0.085298
-0.055695,0.0096132,-0.13687,-0.10849,0.0096132,-0.0050355,0.00076295,-0.038911
-0.059052,0.048676,-0.15488,-0.097505,-0.0013733,-0.0090028,-0.0032044,0.012055
-0.070039,0.10178,-0.12619,-0.11917,-0.033417,-0.011749,-0.022736,0.015412
-0.049287,0.0206,-0.074311,-0.05478,-0.022736,-0.010834,-0.018463,0.045624
-0.063935,0.015412,-0.094453,-0.10697,-0.021515,-0.0077821,-0.014191,0.041047
-0.068818,0.011444,-0.088655,-0.073396,-0.027314,-0.019989,-0.01297,0.033417
-0.028229,-0.0206,-0.045624,-0.11643,-0.070649,-0.013886,0.015412,0.05539
-0.018158,-0.045624,-0.015412,-0.12528,-0.030671,0.016022,0.061494,0.050202
0.017548,-0.14786,0.024872,-0.02945,0.043488,0.045014,0.076753,0.059052
0.031281,-0.10544,-0.043793,-0.033722,0.030365,0.037079,0.048066,0.058442
0.034943,-0.084993,-0.019074,0.0096132,0.041657,-0.010224,0.011444,0.015412
0.032807,-0.11276,0.027619,-0.0035096,0.10361,-0.0068666,-0.039826,-0.034638
0.035859,-0.12253,-0.00045777,-0.16281,0.05539,0.024262,-0.041352,-0.035859
0.0086976,-0.08072,-0.015717,-0.15518,-0.00015259,0.00045777,-0.11398,-0.081331
0.010834,-0.11215,-0.025483,0.0206,0.0090028,0.021515,-0.087434,-0.043183
-0.024567,-0.034028,-0.073396,-0.0044251,0.072175,0.019989,-0.0044251,-0.0065614
-0.048371,0.0047303,-0.12039,-0.041657,0.10208,-0.020294,0.017853,-0.04593
-0.073701,0.048371,-0.13931,-0.21561,0.0206,-0.0053407,0.036774,-0.025177
-0.097505,0.059358,-0.11124,-0.21714,-0.044404,0.024872,0.056611,0.023041
-0.10697,0.076753,-0.12711,-0.044099,-0.11307,0.045319,-0.014191,0.047761
-0.095979,0.073091,-0.12863,-0.094759,-0.051118,0.016327,-0.045624,0.049592
-0.081331,0.046235,-0.09659,-0.11093,-0.016632,0.0019837,0.037385,0.059663
-0.064851,-0.010224,-0.056916,-0.058442,-0.049592,0.0010681,0.039216,0.08011
-0.0083925,-0.10605,-0.013886,0.0099184,-0.035248,0.002594,0.027619,0.078584
0.027314,-0.18296,0.025483,-0.044099,0.041657,0.011139,0.054475,0.046235
0.017243,-0.103,-0.014496,-0.077058,0.055085,0.010529,0.019684,0.013581
0.015106,-0.084993,-0.015717,-0.11917,0.018769,-0.011139,-0.016938,0.037385
-0.0074769,-0.053864,-0.018463,-0.087739,-0.0096132,0.015106,-0.0071717,0.034943
-0.0071717,-0.051423,0.016632,0.052033,-0.018463,0.031281,0.066682,-0.0096132
-0.031281,-0.0080873,-0.035554,-0.11643,0.051423,0.005951,0.081941,-0.059358
-0.044709,-0.016022,-0.032502,-0.075532,0.05539,0.011444,0.041352,-0.086213
-0.051118,0.0041199,-0.059968,0.055085,-0.00045777,0.044099,0.037995,-0.066682
-0.05539,0.012665,-0.086519,-0.10758,0.10025,0.045014,0.031586,-0.015717
-0.033417,-0.0077821,-0.11063,-0.17319,0.085603,0.062104,-0.020294,0.024872
-0.07126,0.019684,-0.10697,-0.076753,-0.018463,0.034333,-0.034638,0.061189
-0.070954,0.034028,-0.13535,-0.08896,-0.0083925,-0.023346,-0.00076295,0.055085
-0.056001,0.026398,-0.13077,-0.097505,-0.14267,-0.023346,0.081636,0.07248
-0.043793,0.0047303,-0.1326,-0.13046,-0.11795,-0.06363,0.07187,0.076448
-0.027619,0.0035096,-0.1091,-0.14908,0.18326,-0.093538,0.016022,0.035554
-0.0096132,-0.019379,-0.050202,-0.10391,0.061189,0.11154,-0.010529,0.044404
-0.0090028,-0.029755,-0.01236,-0.050813,-0.19089,0.15152,-0.018769,0.037079
0.019684,-0.16587,0.072786,0.0044251,-0.05478,-0.070039,-0.045319,0.015106
0.019379,-0.16464,-0.011749,-0.051728,0.063935,-0.099947,-0.081636,-0.012665
0.016022,-0.088045,-0.045624,-0.1146,0.041352,-0.0032044,-0.08835,-0.041962
0.020905,-0.042573,-0.023041,-0.064851,-0.014801,0.013275,-0.056916,-0.053254
0.019989,-0.084382,0.014191,-0.064546,0.057221,0.026398,0.041657,-0.044404
0.041352,-0.11673,0.011749,-0.21103,0.14725,0.050507,0.075227,-0.033417
0.10239,-0.24552,0.023957,0.45151,0.098726,0.03006,0.043488,-0.04654
0.00045777,-0.10971,-0.07126,-0.22721,0.10849,-0.057221,-0.0022889,-0.11002
-0.046845,-0.018463,-0.15763,-0.11093,0.044404,0.012055,0.036774,-0.042878
-0.056001,0.061494,-0.16403,-0.10513,-0.075227,0.048676,0.037995,0.019684
-0.089265,0.11795,-0.12314,-0.11337,-0.0047303,-0.035248,0.009308,0.012665
-0.11856,0.11124,-0.12131,-0.11765,-0.023346,-0.012055,0.048066,0.056306
-0.12375,0.088655,-0.1207,-0.1445,-0.10422,0.024872,0.13809,0.092622
-0.084382,0.018158,-0.061189,-0.078584,-0.067903,0.0083925,0.15793,0.10788
-0.077974,-0.016938,-0.076448,-0.05539,0.0032044,-0.015717,-0.20493,0.094148
-0.060578,0.0044251,-0.048066,-0.036164,0.019379,-0.034943,-0.54368,0.083467
-0.040436,-0.038911,-0.022431,-0.082246,-0.021515,0.040131,-0.032502,0.103
-0.015106,-0.033417,-0.018463,-0.2034,0.002594,0.040131,0.20798,0.069429
-0.012665,-0.069734,0.021515,-0.057221,0.063325,0.0010681,0.13046,0.047456
0.012665,-0.094759,-0.014191,-0.014191,0.0016785,0.068208,0.14664,0.023651
0.045624,-0.15702,0.030976,0.0013733,0.014801,0.035248,0.096895,-0.062715
0.05539,-0.12985,-0.029145,-0.013275,0.046845,0.015106,0.023651,-0.11917
0.019379,-0.086824,-0.024872,-0.11063,0.065766,0.02121,0.024872,-0.10452
0.012055,-0.060883,-0.070954,-0.048981,0.022126,0.026703,-0.10391,-0.059968
-0.011139,-0.020905,-0.059358,-0.024872,0.011444,0.030976,-0.087434,-0.05478
-0.019379,-0.037385,-0.094759,-0.081331,0.037079,0.0038148,0.10666,-0.05478
-0.030976,0.042267,-0.1387,-0.11521,0.011749,-0.005951,0.11154,-0.043793
-0.072175,0.088655,-0.13138,-0.10544,-0.0035096,-0.023041,-0.033112,-0.020905
-0.08835,0.057527,-0.13535,-0.061189,-0.019379,-0.022736,-0.25528,0.030365
-0.10056,0.056611,-0.099031,-0.16709,-0.013581,-0.017853,-0.08011,0.077363
-0.064546,-0.0062562,-0.05417,-0.11093,-0.022126,-0.017548,0.081331,0.073396
-0.056001,-0.029755,-0.04593,-0.16464,-0.018769,-0.0080873,0.02182,0.079805
-0.023651,-0.090181,-0.036469,-0.079194,-0.013275,0.0010681,0.015412,0.058442
-0.033417,-0.095674,0.024567,-0.00076295,-0.017548,0.016632,0.031586,0.046845
-0.019684,-0.10391,0.010834,0.0099184,0.019989,0.016327,0.085603,0.081636
-0.033112,-0.048981,-0.048371,-0.1146,0.051423,0.002594,0.11063,0.06363
-0.0032044,-0.073396,-0.0041199,-0.056611,0.016632,0.044404,0.12497,0.019074
0.012665,-0.084382,-0.018769,-0.023346,0.0010681,0.062715,0.17441,0.015412
0.025177,-0.078279,-0.029755,-0.023346,0.035248,0.035554,0.21378,-0.019074
0.023041,-0.06424,-0.024872,-0.1326,0.04715,0.023346,0.15854,-0.033722
0.017243,-0.066377,-0.05417,-0.079194,0.029755,0.0050355,-0.17929,-0.067292
-0.026703,-0.046235,-0.082246,-0.030365,-0.002594,-0.015106,-0.68528,-0.10391
-0.053864,0.0035096,-0.11856,-0.049287,0.031281,-0.0019837,-0.23728,-0.054475
-0.073701,0.062104,-0.15091,-0.14511,0.032197,-0.00015259,0.17838,-0.0090028
-0.063325,0.018463,-0.1091,-0.15122,-0.027008,-0.018158,0.061494,-0.0019837
-0.065766,0.019684,-0.17197,-0.14542,-0.063325,-0.0077821,0.016022,0.021515
-0.05539,0.049592,-0.11215,-0.095674,-0.0032044,-0.030365,-0.056001,0.0080873
-0.073396,0.056001,-0.07187,-0.051423,-0.0206,0.0071717,0.059663,0.041047
-0.042573,0.0019837,-0.026398,-0.089876,0.0047303,0.014801,0.091707,0.087434
-0.052644,-0.030365,-0.005951,-0.06424,-0.0041199,0.028534,0.077363,0.085603
-0.0083925,-0.092927,-0.0080873,0.0047303,-0.026703,0.046235,0.10788,0.091402
0.0074769,-0.072786,-0.0028992,-0.060578,0.047456,-0.00015259,0.059968,0.068208
0.0032044,-0.099947,0.0016785,-0.084688,0.080415,0.0010681,-0.0080873,0.011749
0.034333,-0.13565,0.038911,-0.058442,0.011749,0.05539,0.027314,0.032807
0.055695,-0.15488,0.014801,-0.018463,-0.0096132,0.047456,0.017243,-0.0090028
0.036774,-0.10178,-0.027619,-0.10483,0.024262,0.0068666,0.017548,-0.076753
-0.00015259,-0.067903,-0.050507,-0.18601,0.037385,-0.0022889,0.0080873,-0.08957
-0.016632,-0.052644,-0.058747,0.32303,0.021515,-0.0090028,-0.019379,-0.10361
-0.05539,0.033417,-0.11948,-0.21744,0.04593,-0.027008,0.023041,-0.070039
-0.081941,0.074006,-0.14664,-0.25559,0.0047303,-0.015412,0.050507,-0.011444
-0.08835,0.060273,-0.12772,-0.061494,-0.075837,-0.033722,0.057221,0.044404
-0.095064,0.037995,-0.12741,-0.073091,-0.030976,-0.020294,0.087434,0.063325
-0.081025,0.02121,-0.13107,-0.059052,-0.019684,0.07126,0.18326,0.10666
-0.067903,-0.040436,-0.03769,-0.074311,-0.036774,0.14389,0.03769,0.11246
-0.081025,-0.0038148,-0.064851,-0.21073,-0.02884,0.26963,-0.38315,0.063935
-0.048676,-0.031891,-0.076753,-0.065766,-0.016938,0.092927,-0.27085,0.066682
-0.014191,-0.018769,-0.039216,-0.058747,0.050202,-0.51652,0.056306,0.033417
-0.0071717,-0.024567,0.0077821,-0.034943,0.036774,-0.14694,0.076143,-0.021515
0.038911,-0.074006,0.039826,0.0096132,-0.010529,0.12192,0.16526,-0.0028992
0.072786,-0.16983,0.060578,-0.04654,0.019379,0.028229,0.10208,-0.041962
0.08072,-0.17136,0.0041199,-0.050507,0.038911,0.014801,0.00076295,-0.092317
0.052949,-0.1561,-0.029145,-0.036774,0.07126,0.0019837,-0.14633,-0.093843
0.017853,-0.085603,-0.041962,-0.063325,0.040436,0.019074,-0.22873,-0.103
-0.0074769,-0.049592,-0.042573,-0.055085,0.034028,0.030976,-0.029755,-0.04715
-0.0053407,-0.019684,-0.10422,-0.18173,0.11215,0.018769,0.089265,0.010834
-0.06363,0.0383,-0.11551,-0.12741,0.059358,0.02121,0.081941,-0.0028992
-0.10544,0.083772,-0.14298,-0.11154,-0.043183,0.0080873,0.070649,0.0053407
-0.064546,0.024567,-0.10025,-0.031281,-0.070039,0.016327,0.05417,0.090181
-0.08896,0.044404,-0.14115,-0.12955,-0.040436,-0.0019837,0.018769,0.082246
-0.11398,0.077974,-0.12528,-0.066377,-0.018463,-0.0041199,-0.021515,0.051423
-0.10178,0.022126,-0.083467,-0.087129,-0.024872,0.050813,0.012665,0.092317
-0.067903,-0.036164,-0.043183,-0.12467,-0.012665,0.0019837,0.0074769,0.077668
-0.049897,-0.02884,-0.030671,-0.13931,-0.023041,-0.10239,-0.028534,0.048066
-0.030365,-0.042573,-0.022736,-0.0028992,-0.052949,0.0099184,0.042267,0.051728
-0.00015259,-0.052033,-0.016632,-0.03769,-0.019684,0.096895,0.13535,0.10483
0.0099184,-0.071565,-0.013581,-0.059358,0.059052,0.051423,0.10788,0.048981
0.0053407,-0.089876,0.018463,-0.044099,0.027924,0.016022,0.053254,-0.037385
0.0010681,-0.084382,-0.0080873,-0.036774,0.019379,0.027314,0.025483,-0.040742
-0.0090028,-0.099336,-0.00015259,0.0028992,0.031586,0.024567,0.023041,-0.065766
0.011749,-0.16831,-0.019684,-0.05539,0.075837,0.023041,0.034943,-0.034333
0.027619,-0.17014,-0.05417,-0.09781,0.075532,0.0068666,-0.050507,-0.014191
0.015717,-0.10239,-0.095979,-0.10544,0.016022,-0.0038148,-0.084382,-0.053254
-0.015412,0.036164,-0.12528,-0.086824,-0.0019837,-0.0068666,-0.023651,-0.05478
-0.050813,0.10422,-0.13626,-0.05539,-0.00015259,-0.037079,-0.04654,-0.049592
-0.047761,0.051728,-0.1146,-0.14939,-0.036774,-0.04654,-0.056001,-0.027314
-0.066072,0.048371,-0.098421,-0.037079,-0.084993,-0.0099184,-0.013275,0.033722
-0.084993,0.079194,-0.12741,-0.15915,0.0383,0.0083925,0.014801,0.063935
-0.066072,0.031586,-0.074922,-0.20066,0.14664,0.030976,0.038911,0.088655
-0.031891,-0.02884,-0.036164,-0.085603,-0.033722,0.034333,0.036164,0.076753
-0.017548,-0.056916,-0.044709,-0.076753,-0.076753,-0.0038148,0.010529,0.01297
-0.018463,-0.05478,-0.0080873,-0.010224,-0.018158,0.005951,0.0071717,-0.011444
-0.014496,-0.083467,0.011444,-0.048676,0.00076295,0.017853,0.016938,-0.0074769
-0.0035096,-0.10452,0.0016785,-0.081331,0.0035096,0.056611,0.062104,0.017548
0.023346,-0.11276,0.005951,-0.010529,-0.013275,0.071565,0.085603,-0.0028992
0.049897,-0.12284,0.014191,0.039521,0.034943,0.0053407,0.02182,-0.023346
0.012055,-0.10636,-0.016938,-0.10117,0.082551,-0.013275,-0.0090028,-0.028229
-0.0086976,-0.095979,-0.041047,-0.052949,0.053559,0.0032044,-0.0074769,-0.029145
-0.029145,-0.037385,-0.08957,-0.095674,0.025483,0.014191,0.016022,0.018769
-0.036469,-0.026703,-0.092012,-0.081331,0.034333,0.012055,0.057527,0.039216
-0.063935,0.025177,-0.11551,-0.087739,-0.00076295,-0.0074769,-0.013275,0.010834
-0.077668,0.085298,-0.15305,-0.11704,0.0071717,-0.021515,-0.052033,-0.026398
-0.074922,0.059968,-0.12528,-0.077363,-0.035554,-0.00076295,0.0038148,0.009308
-0.061494,0.033722,-0.094759,-0.047456,-0.043488,0.0062562,-0.0074769,0.043793
-0.041352,0.0065614,-0.14115,-0.1265,-0.00076295,-0.018769,-0.06363,0.070344
-0.040742,0.016632,-0.095064,-0.1207,-0.0074769,-0.027008,-0.11734,0.032807
-0.04593,-0.00076295,-0.027924,-0.097505,-0.026703,-0.0053407,-0.095674,-0.0068666
-0.049287,-0.022126,-0.016938,-0.088655,-0.010529,-0.0013733,0.024872,-0.014191
-0.037079,-0.052338,0.017853,-0.042573,-0.010529,0.012055,0.12436,0.0080873
-0.025483,-0.057832,-0.0016785,-0.05478,0.0013733,0.044404,0.17075,0.029755
0.013581,-0.12863,0.011444,0.0028992,0.027008,0.042878,0.1503,0.034028
0.051118,-0.18662,0.038911,0.019989,0.053559,0.018158,-0.085603,0.009308
0.029145,-0.12375,-0.036774,-0.16587,0.096284,-0.012665,-0.23362,-0.065461
-0.0047303,-0.092622,-0.0074769,-0.066987,0.039216,0.015106,-0.011139,-0.065156
-0.020294,-0.065766,-0.069123,-0.052949,-0.035859,0.069734,0.094759,-0.052033
-0.032502,-0.029755,-0.08957,-0.11124,0.028229,0.036469,0.060578,-0.075227
-0.019379,-0.025483,-0.11307,-0.084382,0.042267,0.0044251,0.056306,-0.028229
-0.068818,0.034333,-0.1268,-0.098421,0.030976,-0.011139,0.029145,0.016938
-0.081331,0.041962,-0.10605,-0.13718,0.04715,-0.039521,-0.0080873,0.06302
-0.051423,0.029145,-0.11612,0.2388,0.039826,-0.033417,-0.057527,0.079194
-0.061189,0.018463,-0.078889,-0.31327,-0.031281,0.024872,0.03769,0.089876
-0.086824,0.051728,-0.10727,-0.14664,-0.20005,0.040742,0.05417,0.090181
-0.049897,-0.0074769,-0.060273,-0.12955,-0.20218,0.019989,0.062409,0.12802
-0.018769,-0.045319,-0.034943,-0.075227,-0.086213,0.015106,0.069734,0.11368
0.0028992,-0.1149,-0.037079,-0.069123,-0.024872,-0.0050355,0.017853,0.030365
0.010529,-0.064546,-0.034638,-0.04715,0.024262,-0.019074,-0.016938,-0.020294
0.023957,-0.083467,0.023651,-0.016938,0.055695,0.0086976,-0.029755,-0.051423
0.058442,-0.1265,0.022126,-0.045624,0.051423,0.019074,-0.091402,-0.087434
0.023957,-0.052949,-0.0077821,-0.06302,0.20371,-0.057832,-0.048371,-0.073701
-0.017243,-0.031891,-0.022126,-0.032502,0.31937,-0.057832,0.012665,-0.057527
-0.018158,-0.045624,-0.018463,0.013581,0.063935,0.057527,0.061494,-0.010529
-0.012055,-0.037995,-0.060578,-0.023651,0.044099,-0.0032044,0.080415,-0.01236
-0.014191,-0.013886,-0.12222,-0.17319,0.0383,-0.019379,0.084382,-0.030365
-0.026398,0.02182,-0.11978,-0.11093,-0.046845,0.022126,0.011749,-0.019379
-0.059968,0.025177,-0.10544,-0.069734,-0.07187,0.018769,-0.20401,-0.0083925
-0.099031,0.042267,-0.11307,-0.10544,-0.027314,0.0083925,-0.057221,-0.012055
-0.088045,0.027314,-0.13291,-0.056306,-0.040742,0.040436,0.1442,0.076143
-0.077058,0.013275,-0.11643,-0.13138,-0.035248,0.030976,0.13809,0.12284
-0.08957,0.063325,-0.093538,-0.17136,-0.0062562,0.0013733,0.12528,0.092012
-0.068818,0.0047303,-0.040436,-0.091707,-0.052644,0.010834,0.13901,0.076753
-0.04654,-0.081636,0.00015259,-0.041657,-0.049897,0.022736,0.07187,0.073701
-0.022431,-0.10849,-0.0047303,-0.12161,-0.027008,0.013886,-0.1912,0.044404
0.039521,-0.21012,0.045624,-0.026703,-0.076753,0.009308,-0.28092,-0.0032044
0.029145,-0.13565,-0.039216,-0.11368,-0.055085,0.0080873,-0.065156,-0.034638
0.023346,-0.1268,-0.01297,-0.044404,0.084382,0.0022889,0.041657,-0.048676
0.050507,-0.072786,-0.013581,0.17044,0.11795,0.0053407,0.086824,-0.027008
0.027619,0.0019837,-0.053254,-0.20493,0.088045,0.032502,0.065766,-0.065156
0.027619,-0.036469,-0.0074769,-0.0019837,0.0080873,0.074311,0.056611,-0.065461
0.0035096,-0.059663,-0.091402,-0.078889,0.016938,0.0065614,0.009308,-0.08072
-0.021515,-0.090181,-0.084077,-0.10147,0.02945,-0.0080873,-0.067292,-0.087129
-0.025177,-0.030671,-0.092012,-0.098726,0.064546,0.011444,-0.022736,-0.038605
-0.073396,-0.0022889,-0.095979,-0.095064,0.065156,-0.075532,-0.017243,-0.0206
-0.08957,0.043793,-0.1384,-0.099031,0.01297,-0.10269,-0.0206,-0.023041
-0.094453,0.099641,-0.14572,-0.16281,-0.04593,0.044099,0.065766,0.057221
-0.089265,0.08957,-0.081025,-0.14847,-0.081025,0.051423,0.055695,0.11551
-0.073091,0.015106,-0.058137,-0.051118,-0.093233,0.032807,0.025788,0.078279
-0.039826,-0.026703,-0.043183,-0.057221,-0.025177,0.0041199,0.041962,0.088045
-0.04654,-0.028534,-0.031586,-0.078584,0.0050355,0.012665,0.053864,0.08835
-0.0206,-0.076753,-0.019074,-0.023651,0.013886,0.016938,0.036164,0.075227
-0.0050355,-0.08011,-0.010224,-0.061189,0.040131,0.045624,0.02182,0.044404
0.015412,-0.11032,0.013581,-0.083467,0.041352,0.016632,0.014801,-0.0047303
0.0074769,-0.10452,-0.0028992,-0.061189,0.03006,-0.00015259,-0.01236,-0.029755
-0.019379,-0.061799,-0.032807,-0.068208,0.027619,0.0028992,-0.0010681,0.0074769
-0.018463,-0.068513,-0.024262,-0.0383,0.02182,0.020905,0.041352,0.02182
-0.0032044,-0.057527,-0.062715,-0.055695,0.017853,0.041047,0.096895,0.009308
-0.026703,-0.049592,-0.058442,-0.068513,0.017853,0.041657,0.20401,0.02182
-0.020905,-0.077668,-0.024872,-0.06363,0.022126,0.042573,0.30167,0.013886
-0.0096132,-0.074311,-0.10697,-0.011139,0.011749,0.027008,0.14542,0.0053407
-0.039216,0.041657,-0.16312,-0.074617,0.0096132,-0.047456,-0.37858,-0.067597
-0.077363,0.082246,-0.13748,-0.21714,-0.014801,-0.059052,-0.63523,-0.065156
-0.075532,0.055695,-0.10636,-0.17319,-0.036774,-0.010224,-0.027008,0.014191
-0.063935,0.05417,-0.11429,-0.11337,-0.0074769,0.0077821,0.02121,0.046845
-0.012055,-0.031891,-0.060883,-0.019379,-0.019074,0.0047303,-0.039216,0.066682
-0.013275,-0.051423,-0.032502,-0.103,-0.028534,-0.023346,0.037385,0.055085
-0.018463,-0.025788,-0.019989,-0.0047303,0.0074769,-0.017853,0.0065614,0.039216
0.009308,-0.082246,0.0038148,-0.070954,-0.0206,0.023957,0.036164,0.041962
0.0071717,-0.038605,0.014496,-0.05478,0.037385,0.035554,0.18906,0.020905
-0.012055,-0.034943,0.00045777,-0.051423,0.075532,0.046235,0.21134,0.018158
0.041047,-0.14084,0.0062562,0.0065614,0.033112,0.033417,0.12497,0.0038148
-0.0047303,-0.094148,-0.016022,-0.086824,0.057221,0.00076295,0.020905,-0.072786
-0.0010681,-0.10025,-0.030976,-0.075227,0.037385,0.050813,-0.012665,-0.11063
0.002594,-0.15274,-0.039216,-0.017243,0.025483,0.0077821,-0.059052,-0.12528
-0.034333,-0.073396,-0.10544,-0.12772,0.053864,-0.077974,-0.21408,-0.14359
-0.044709,-0.00045777,-0.13962,-0.1091,0.027314,-0.075532,-0.11551,-0.090791
-0.062104,0.095369,-0.14267,-0.095369,-0.0062562,-0.046235,0.0010681,-0.0010681
-0.072175,0.058137,-0.12833,-0.073701,-0.0071717,-0.012665,-0.017548,0.054475
-0.096284,0.073701,-0.1091,-0.11582,-0.081941,0.11948,0.036774,0.067597
-0.077363,0.04654,-0.078279,-0.095369,-0.10605,0.1268,0.13931,0.12924
-0.11185,0.059358,-0.10056,-0.10727,-0.048676,0.039216,0.11185,0.16037
-0.098116,-0.0080873,-0.023041,-0.02945,0.015412,-0.0050355,0.11307,0.15915
-0.059358,-0.048981,-0.038911,-0.0074769,0.0080873,0.026703,0.14237,0.17319
-0.029145,-0.06363,-0.042573,-0.14084,0.05539,-0.0056458,-0.059968,0.092622
-0.0065614,-0.090181,0.018769,-0.099947,0.031586,0.0068666,-0.20951,0.019379
0.037995,-0.103,0.023346,-0.019684,-0.028534,0.037079,0.073396,-0.0083925
0.025788,-0.1265,0.0077821,-0.026093,0.02884,-0.081636,0.10452,-0.06363
0.04715,-0.14084,-0.0086976,-0.084688,0.065156,-0.053864,-0.049592,-0.070039
0.046235,-0.13657,0.011444,-0.052644,0.031891,0.037385,-0.18296,-0.053254
0.034333,-0.12222,-0.042573,-0.005951,0.0053407,0.15763,0.10391,-0.032807
-0.0083925,-0.073396,-0.070344,-0.09659,0.031891,0.31907,0.17777,-0.021515
-0.017243,-0.0077821,-0.12314,-0.096895,0.085298,0.22202,0.042878,-0.025788
-0.0032044,0.01236,-0.10758,-0.09781,0.103,-0.46799,0.039826,-0.047761
-0.02945,0.030365,-0.1326,-0.096895,0.018769,-0.27726,0.085603,-0.065461
-0.074922,0.069734,-0.1265,-0.12039,-0.01236,0.0086976,0.054475,-0.064546
-0.094148,0.07126,-0.10422,-0.11673,-0.044404,-0.00076295,0.1207,0.00045777
-0.091402,0.059358,-0.10117,-0.091402,-0.056916,0.023041,-0.0041199,0.075227
-0.099031,0.075532,-0.12253,-0.077668,-0.05539,0.010529,-0.38926,0.099641
-0.098421,0.036164,-0.041657,-0.098726,-0.034638,0.025483,-0.2739,0.097505
-0.0383,-0.062715,0.00076295,-0.091096,0.0090028,0.041047,-0.022736,0.074617
0.041962,-0.14786,0.027314,-0.042573,-0.019379,0.019074,0.0041199,0.027314
0.075532,-0.15274,-0.0035096,-0.062715,-0.02945,0.0038148,0.056001,-0.013581
0.049592,-0.10483,-0.027008,-0.027314,0.0090028,0.019989,0.094759,-0.028229
0.029755,-0.068513,-0.0074769,0.0044251,0.065461,-0.00076295,0.059663,-0.034333
0.00045777,-0.061494,-0.015412,-0.0013733,0.11063,-0.0028992,0.03769,-0.055085
-0.031586,-0.066377,-0.012055,-0.094759,0.077668,0.040436,0.061494,-0.031891
-0.029755,-0.081941,-0.02884,-0.029145,0.052033,0.044404,0.075227,0.0032044
-0.023346,-0.095369,-0.074922,-0.049592,-0.0050355,0.040131,0.081636,0.0096132
-0.052949,-0.075837,-0.068513,-0.22965,-0.022126,0.028534,0.061189,0.0056458
-0.11002,0.0096132,-0.12253,-0.091096,-0.012055,0.0071717,0.048981,0.013275
-0.11551,0.049592,-0.13565,-0.066682,0.0041199,0.00045777,0.059663,0.05417
-0.10422,0.079805,-0.13321,-0.14572,0.015106,-0.0038148,0.06302,0.067903
-0.08896,0.093233,-0.11246,-0.10483,-0.04593,0.013886,0.078279,0.057527
-0.052949,0.039521,-0.099336,-0.094759,-0.06363,0.024872,0.059968,0.028229
-0.060883,0.024567,-0.059968,-0.088655,-0.023346,-0.0028992,-0.029755,0.005951
-0.056001,0.011139,-0.036774,-0.030976,-0.013581,0.0062562,-0.085603,0.02945
0.011139,-0.099641,-0.030976,-0.12558,0.0047303,0.019989,-0.02884,0.066072
0.019074,-0.1088,0.0053407,-0.076448,0.0016785,0.01236,-0.057221,-0.0035096
0.033112,-0.092317,-0.005951,-0.059052,0.0080873,0.015412,-0.069123,-0.04715
0.03769,-0.11856,-0.0099184,-0.024262,0.026703,-0.066987,-0.028229,-0.037385
0.049592,-0.12345,-0.015717,-0.009308,0.041962,-0.018769,0.032807,-0.055695
0.039216,-0.087434,-0.0086976,-0.064851,0.069429,0.013275,0.065461,-0.026398
0.037385,-0.15824,0.050507,-0.0068666,0.056001,0.011444,0.017243,-0.0068666
0.023957,-0.1384,-0.064851,-0.037385,0.04715,0.0099184,0.0053407,-0.00045777
-0.012665,-0.077974,-0.078279,-0.10544,0.062409,-0.014191,-0.019074,-0.012055
-0.02121,0.039521,-0.14847,-0.077058,0.0068666,0.027314,0.010834,0.031586
-0.06363,0.091096,-0.14969,-0.22293,0.0056458,0.027008,0.08072,0.057221
-0.11154,0.1326,-0.15,-0.2681,0.0090028,0.028534,0.05417,0.036774
-0.06302,0.053864,-0.13382,0.35416,0.013275,0.03006,0.027008,0.061189
-0.066987,0.035859,-0.065156,-0.24949,0.1088,-0.039521,0.0028992,0.018158
-0.056001,0.015106,-0.082551,-0.19486,0.043488,-0.023651,-0.0019837,-0.014801
-0.014496,-0.066072,-0.030671,-0.041352,-0.11856,0.058747,0.027619,0.032197
-0.016327,-0.050507,-0.031891,-0.045624,-0.16861,0.045014,-0.036469,-0.0083925
-0.037385,-0.048981,-0.0074769,-0.092927,-0.2385,0.036774,-0.040742,-0.002594
-0.037079,-0.068208,0.0047303,-0.089265,-0.057832,-0.00076295,0.048981,0.0071717
-0.0071717,-0.076753,-0.0038148,-0.056306,0.14481,-0.011444,0.020294,-0.0050355
0.013886,-0.10758,0.01236,0.048981,0.1265,0.0013733,-0.21073,-0.054475
-0.021515,-0.1146,-0.0019837,-0.0047303,0.061189,-0.0013733,-0.054475,-0.059663
-0.032502,-0.10239,-0.0056458,-0.11673,0.085908,0.017853,0.12894,0.0086976
-0.032502,-0.070344,-0.040436,-0.11337,0.12497,0.016632,0.1384,0.056611
-0.046845,-0.031891,-0.072175,-0.11521,0.026703,0.052949,0.14939,0.05539
-0.054475,0.010529,-0.10971,-0.065156,-0.11582,0.050507,0.027924,0.059052
-0.059052,0.025177,-0.12955,-0.090791,-0.069123,0.022736,-0.19181,0.067903
-0.066682,0.023346,-0.13169,-0.068818,-0.00076295,0.0080873,-0.053864,0.041657
-0.069429,0.046235,-0.14694,-0.15061,0.012055,-0.018769,0.088655,0.013886
-0.043793,0.044404,-0.13931,-0.11368,0.047456,-0.030365,0.042878,0.025788
-0.054475,0.057527,-0.090486,-0.084993,0.17197,-0.050507,0.015717,0.018158
-0.02884,0.015412,-0.052949,-0.061494,-0.026398,0.023957,0.013581,0.019989
-0.05539,-0.01236,-0.032502,-0.056306,-0.083772,0.002594,0.023651,0.0090028
-0.05478,-0.048981,-0.030671,-0.098421,-0.0062562,-0.017853,0.0068666,-0.002594
-0.009308,-0.10239,0.0074769,-0.083467,-0.016327,0.040742,0.041962,0.042267
0.035859,-0.12436,0.0083925,-0.025483,-0.0062562,0.0206,0.02182,0.038911
0.039216,-0.12802,0.010529,-0.040742,0.027314,0.0077821,0.0047303,-0.002594
0.041657,-0.12467,0.0065614,-0.064851,0.035248,0.018463,0.035554,-0.020905
0.033722,-0.10605,-0.0090028,-0.015106,0.017243,0.026398,0.02182,-0.018463
0.065156,-0.103,-0.010529,-0.005951,0.040131,-0.0047303,0.043488,-0.0383
0.025483,-0.074311,-0.042573,-0.10788,0.057527,-0.0028992,0.050507,-0.069734
0.0074769,-0.062104,-0.075227,-0.060883,0.027314,0.021515,0.051728,-0.069429
-0.035859,0.016327,-0.13626,-0.17288,0.019684,0.0065614,0.04654,-0.04654
-0.072786,0.06363,-0.11948,-0.072175,0.03006,-0.011444,-0.086213,-0.021515
-0.059663,0.024567,-0.11551,0.12192,0.0038148,-0.019074,-0.30747,0.016938
-0.068818,0.050202,-0.1384,-0.31601,0.015106,-0.016938,-0.11582,0.027924
-0.099641,0.049592,-0.093233,-0.14054,-0.034638,0.034638,0.098116,0.045319
-0.11734,0.061799,-0.094148,-0.1326,-0.065156,0.023346,-0.0044251,0.076448
-0.086824,0.010529,-0.070039,-0.022126,-0.073701,0.052949,0.043183,0.12436
-0.066682,-0.025788,-0.040131,-0.055695,-0.034333,0.034333,0.1622,0.078584
-0.049897,-0.031891,0.0086976,-0.096895,0.0077821,0.0050355,0.15518,0.042878
-0.048676,-0.013886,-0.010529,-0.08072,0.025483,0.031281,0.20096,0.054475
-0.012055,-0.067903,-0.012055,-0.045319,0.087739,0.057221,0.12589,0.039521
0.009308,-0.11795,-0.00015259,-0.052338,0.048371,0.063325,0.017853,0.044404
0.069123,-0.14694,0.017243,-0.024262,-0.0010681,0.016938,-0.034333,-0.012665
0.081941,-0.20279,0.052033,-0.016022,0.011139,-0.011139,-0.081941,-0.086213
0.053254,-0.21073,-0.032197,-0.050507,-0.024872,-0.017548,0.012055,-0.10361
0.014191,-0.086824,-0.099641,-0.0383,0.035859,-0.034943,0.071565,-0.11246
-0.057221,0.050202,-0.097505,-0.067597,0.091402,-0.052033,-0.011139,-0.094148
-0.088045,0.076448,-0.095369,-0.10971,0.076753,-0.058137,-0.33433,-0.046845
-0.081025,0.099641,-0.16922,-0.14298,0.0016785,-0.018158,-0.55375,-0.0056458
-0.087129,0.078584,-0.13107,-0.15763,-0.05539,0.058747,0.19242,0.11795
-0.066682,0.015717,-0.063935,-0.026398,-0.07187,0.058442,0.36606,0.15152
-0.015717,-0.1268,-0.055085,0.079805,-0.025788,-0.039826,-0.13016,0.085603
-0.072786,0.030365,-0.10758,-0.23819,0.081941,-0.048371,-0.041962,0.034028
-0.061189,-0.036774,-0.035554,-0.16495,0.026703,0.024262,0.12772,0.038911
-0.065461,-0.052338,-0.14847,-0.22934,-0.083467,0.037079,-0.015412,0.011444
0.0099184,-0.076143,0.0071717,0.0010681,-0.11185,0.070344,0.041047,0.06424
0.023651,-0.061494,0.026398,-0.042573,-0.030976,0.05417,0.077668,0.061799
0.017548,-0.077974,0.03006,-0.084993,0.10697,0.0047303,0.010529,-0.016327
0.041962,-0.092012,0.014801,0.00076295,0.060273,0.020294,0.092927,-0.02884
0.034943,-0.042878,-0.023957,-0.10941,0.031891,-0.018158,0.090181,-0.033722
0.044099,-0.11887,0.038911,-0.0041199,0.042267,-0.060578,0.010834,-0.069429
0.042267,-0.11002,-0.085908,0.033722,0.03769,0.045319,-0.031891,-0.057832
-0.029145,-0.040742,-0.078279,-0.076448,0.12558,0.0071717,-0.18601,-0.067292
-0.046845,-0.019989,-0.10544,-0.088655,0.081331,-0.012055,-0.19699,-0.056611
-0.085908,0.04593,-0.1384,-0.11032,0.0050355,-0.00076295,0.030976,-0.017243
-0.10147,0.092622,-0.1384,-0.12314,-0.0096132,0.0062562,0.09781,0.037995
-0.10452,0.076143,-0.12161,-0.12863,-0.036774,0.018158,0.074617,0.048066
-0.081331,0.034333,-0.103,-0.056611,-0.041352,0.021515,0.032807,0.057221
-0.084077,0.027314,-0.11521,-0.10697,-0.063325,0.049287,0.044099,0.082551
-0.089876,0.061189,-0.082551,-0.12345,-0.028229,0.021515,0.07126,0.04593
-0.031586,-0.025788,-0.032807,-0.065461,-0.049287,0.015412,0.059968,0.044099
-0.025177,-0.045624,-0.01236,-0.068513,-0.0383,0.026703,0.056306,0.043793
-0.012665,-0.07187,0.0044251,-0.05478,0.023041,-0.0056458,0.027314,0.020905
0.015106,-0.11795,0.011749,-0.05417,0.027314,-0.0035096,0.018769,0.030976
0.018158,-0.12497,0.014496,-0.056306,0.015412,0.027008,0.038911,0.016022
0.033722,-0.11734,0.016327,-0.020294,0.021515,-0.029755,0.042267,0.010529
0.035248,-0.11673,-0.046845,-0.051118,0.043183,-0.041047,0.030365,-0.018463
0.048981,-0.095674,-0.023651,-0.066377,0.051118,0.0383,0.040131,-0.027314
0.0071717,-0.070649,-0.052644,-0.069123,0.05539,0.11337,0.024262,-0.039826
-0.027008,-0.036774,-0.087434,-0.077668,0.011139,0.26291,0.015717,-0.018769
-0.05539,-0.011749,-0.12161,-0.10758,-0.027008,0.29313,-0.028534,0.0074769
-0.05478,-0.00045777,-0.12711,-0.065461,0.068513,-0.35904,-0.064546,0.018769
-0.087129,0.048676,-0.12222,-0.087434,0.022736,-0.35599,0.013581,0.023346
-0.10697,0.068208,-0.099641,-0.059663,0.0047303,0.00045777,0.0077821,-0.00045777
-0.089265,0.023957,-0.089265,-0.08072,0.019684,-0.022126,-0.031586,0.062409
-0.046845,0.011749,-0.090181,-0.14908,0.026093,-0.017853,-0.067597,0.055695
-0.044404,0.012055,-0.060883,-0.14664,-0.043488,0.034028,0.013275,0.013886
-0.060883,-0.02182,-0.029755,-0.065156,-0.064851,0.062409,0.031586,0.005951
-0.044404,-0.032502,-0.018769,-0.073091,-0.033417,0.062715,0.058137,0.057221
0.011444,-0.11002,0.024872,0.027924,0.0016785,0.050507,0.04715,0.035248
0.0010681,-0.093843,-0.0035096,-0.073396,0.032807,0.018769,0.016938,0.012055
0.022736,-0.11154,-0.0065614,-0.14755,0.035248,0.025177,0.027314,0.011444
0.037995,-0.15091,0.011749,0.025177,-0.036469,0.074311,0.038911,0.0013733
0.023651,-0.092317,-0.030976,-0.068513,0.019074,0.019074,0.0090028,-0.022431
0.034028,-0.074617,-0.034943,-0.11246,0.087739,-0.0086976,-0.011139,-0.045624
0.0080873,-0.0383,-0.070039,-0.059358,0.034943,0.027314,-0.027314,-0.045319
-0.030976,-0.011444,-0.082551,0.0056458,0.015717,-0.0010681,-0.01236,-0.06363
-0.055695,0.011139,-0.11826,-0.10391,0.05417,0.01236,0.047761,-0.01297
-0.073396,0.033722,-0.11612,-0.15579,0.033417,0.023957,0.013275,0.038911
-0.076143,0.068513,-0.13718,-0.13687,-0.06363,0.0047303,-0.00015259,0.031891
-0.041657,0.015412,-0.11307,-0.050813,-0.063325,0.010834,-0.0080873,0.027619
-0.039826,-0.0086976,-0.098116,-0.078584,-0.020905,-0.020905,-0.024872,0.041047
-0.065766,0.017853,-0.073396,-0.1033,0.019684,-0.027008,-0.015717,0.03769
-0.059663,0.0047303,-0.072175,-0.063325,0.0074769,0.0041199,0.0056458,0.067292
-0.022431,-0.039826,-0.017853,-0.10178,0.012055,0.0047303,0.022126,0.07187
-0.035248,-0.040436,-0.020905,-0.10666,0.0068666,0.023957,0.0038148,0.024872
0.0077821,-0.09659,0.026703,-0.015106,-0.01236,0.035248,0.0071717,0.016938
0.029755,-0.14542,0.013581,0.014801,0.012055,0.022126,0.032807,0.016632
0.058442,-0.15244,0.0080873,0.049287,0.075227,-0.0035096,0.017548,-0.024262
0.033722,-0.098116,-0.028534,-0.17685,0.10758,-0.005951,0.0080873,-0.059663
0.002594,-0.070649,-0.014801,-0.086824,-0.01236,0.037995,0.062409,-0.037079
0.0050355,-0.0795,-0.034638,-0.00015259,-0.08896,0.054475,0.099031,-0.042573
-0.027619,-0.031586,-0.080415,-0.21195,0.057527,-0.0010681,0.037079,-0.082856
-0.08896,0.027314,-0.10849,-0.168,0.1387,-0.051423,0.027008,-0.076143
-0.081025,0.039216,-0.11856,0.0044251,0.0050355,0.016327,0.081941,-0.023041
-0.079194,0.059663,-0.13352,-0.28855,0.021515,-0.0068666,-0.0206,-0.00076295
-0.095369,0.048676,-0.08957,0.098726,0.015717,-0.037385,-0.4506,0.01297
-0.084993,0.039826,-0.11307,-0.033112,-0.030671,-0.036164,-0.33036,0.061494
-0.084077,0.028534,-0.094759,-0.17319,0.04593,-0.042878,0.067903,0.079194
-0.081025,0.059663,-0.10208,-0.07126,-0.044709,0.025483,0.13016,0.10971
-0.081636,0.048676,-0.052338,-0.070954,-0.025483,0.033112,0.12894,0.15305
-0.035859,-0.063325,0.02945,-0.040742,-0.12863,0.062715,0.09781,0.089876
-0.0086976,-0.11032,-0.0090028,-0.067597,-0.17594,0.046235,0.086519,0.049287
0.027314,-0.14481,0.00015259,0.00076295,-0.04654,0.027008,0.06302,0.041047
0.037995,-0.12589,-0.0090028,-0.060883,0.065766,0.033417,0.042878,0.025483
0.040131,-0.15366,0.020294,-0.11643,0.10086,0.046235,0.083467,-0.002594
0.082856,-0.24643,-0.02884,-0.015106,0.065156,0.085908,0.1387,-0.010529
0.06302,-0.15061,-0.042267,0.014801,0.070649,0.023346,0.068208,-0.068818
0.034028,-0.030671,-0.04715,-0.051423,0.08072,-0.025788,-0.030976,-0.077668
-0.032807,0.044709,-0.089265,-0.16922,0.012665,-0.0096132,-0.056916,-0.065766
-0.070039,0.074617,-0.11856,-0.12436,-0.052949,0.0071717,-0.077668,-0.034943
-0.095064,0.07126,-0.1088,-0.070344,-0.0074769,-0.011139,-0.064546,0.011139
-0.065156,0.027619,-0.13321,-0.074922,-0.00015259,-0.039826,-0.030671,0.025177
-0.079194,0.069734,-0.11734,-0.11337,0.038911,-0.10575,-0.066987,-0.019379
-0.073701,0.048066,-0.11887,-0.12284,0.21775,-0.070344,-0.019684,0.017548
-0.068818,0.052644,-0.10208,-0.13474,0.051118,0.060883,0.072786,0.07187
-0.06363,0.013275,-0.057832,-0.021515,-0.17166,0.11856,0.087739,0.10056
-0.058747,-0.0068666,-0.040131,-0.065461,-0.095369,0.02884,0.053559,0.082246
-0.013275,-0.069429,-0.023957,-0.093843,0.0038148,0.018463,0.037079,0.058137
0.018769,-0.092622,0.00045777,-0.11337,0.076143,0.040742,0.027924,0.050507
0.074006,-0.15702,0.068513,0.0068666,0.017243,0.043488,0.023346,0.010834
0.072175,-0.20279,0.048981,0.05539,0.022126,-0.026398,-0.05539,-0.066072
0.047456,-0.17594,-0.035859,-0.12375,0.068513,-0.055695,-0.090181,-0.10178
0.016938,-0.093538,-0.030671,-0.11521,0.013275,-0.018158,-0.05539,-0.087739
0.0086976,-0.046235,-0.039216,-0.073396,0.0047303,0.0206,-0.020294,-0.067903
0.005951,-0.046235,-0.059968,-0.038605,0.066072,0.060578,0.031586,-0.056611
-0.035554,0.016327,-0.10666,-0.083162,0.03006,0.011139,-0.0010681,-0.064546
-0.067292,0.057221,-0.1149,-0.1033,-0.0065614,0.0044251,0.013886,-0.017243
-0.066072,0.026398,-0.13626,-0.10483,-0.033112,0.023957,0.0383,0.017853
-0.08835,0.082551,-0.14664,-0.065766,-0.057527,0.0065614,0.030365,0.02121
-0.090181,0.061799,-0.12436,-0.098726,-0.014801,0.0071717,0.022126,0.087739
-0.092012,0.016327,-0.068513,-0.12741,0.027924,0.0050355,0.0077821,0.11215
-0.081941,-0.0013733,-0.068513,-0.090791,-0.027008,-0.009308,-0.00076295,0.10697
-0.066682,0.013886,-0.042267,-0.075532,-0.035554,-0.018769,0.018158,0.13107
-0.073091,-0.016022,-0.026398,-0.044099,0.011749,-0.0074769,0.10849,0.11673
-0.037385,-0.046235,-0.014191,-0.063325,0.024262,0.031586,0.1854,0.10025
-0.0056458,-0.074311,-0.059968,-0.086824,0.024872,0.022736,0.15732,0.052949
0.009308,-0.10056,-0.0044251,-0.037385,0.0096132,0.048371,0.13535,0.025177
0.031281,-0.15274,0.035859,0.052949,0.025177,0.035554,0.065156,-0.0019837
0.026703,-0.103,-0.005951,-0.16281,0.078279,-0.030365,-0.14878,-0.093233
0.016938,-0.084382,-0.014191,-0.074311,0.056001,-0.033112,-0.43778,-0.12619
-0.0028992,-0.089876,-0.020905,0.016632,-0.009308,0.066377,-0.168,-0.055085
-0.045319,-0.027619,-0.090791,-0.19913,0.081941,0.044404,0.33036,-0.026398
-0.017548,-0.044709,-0.08957,-0.050202,0.036774,0.023957,0.32425,-0.0053407
-0.050813,-0.005951,-0.10422,-0.12161,-0.034333,0.0044251,0.1915,-0.0028992
-0.057221,-0.014191,-0.12314,-0.08957,0.016632,-0.081331,0.25162,-0.0206
-0.053559,0.039521,-0.14176,-0.078584,-0.052949,-0.022126,-0.020905,-0.0022889
-0.035859,0.085908,-0.13504,-0.085908,-0.13565,0.05478,-0.68711,-0.013581
-0.056001,0.054475,-0.086824,-0.15152,-0.14817,0.0032044,-0.58366,-0.0206
-0.057527,0.0206,-0.078279,-0.14755,-0.037385,-0.058442,-0.58305,-0.015106
-0.027008,-0.018158,-0.039826,0.26963,0.0090028,0.009308,0.041047,0.075837
-0.015717,-0.052644,-0.0022889,-0.262,0.053864,0.0062562,0.37003,0.057527
0.017243,-0.14084,0.014496,-0.091707,0.073091,0.062715,0.23606,0.072786
0.030365,-0.1384,0.015717,-0.036164,0.044099,0.052644,0.16312,0.042878
0.032807,-0.10697,-0.015717,-0.0383,0.037079,0.0044251,0.092317,-0.024567
0.025177,-0.094453,-0.0065614,-0.024262,0.035554,-0.0016785,0.089876,-0.043793
0.013275,-0.068818,-0.017548,-0.039521,0.075227,-0.0041199,0.14817,-0.053254
0.00045777,-0.063935,-0.028229,-0.056611,0.066682,-0.00076295,0.0080873,-0.04593
-0.0041199,-0.054475,-0.045014,-0.058442,0.030365,-0.0062562,-0.087739,-0.043183
-0.024872,-0.028534,-0.070649,-0.05539,0.025177,0.00045777,-0.016632,-0.046845
-0.045319,0.0080873,-0.11673,-0.14115,0.019684,-0.0090028,0.038911,-0.015106
-0.055695,0.014191,-0.11887,-0.036774,0.0010681,0.0071717,0.057832,0.00076295
-0.049287,0.0016785,-0.11429,-0.089876,-0.04715,0.042267,0.015412,0.024872
-0.052033,0.023957,-0.11887,-0.12345,-0.0019837,0.005951,0.04715,0.046235
-0.063935,0.040131,-0.11154,-0.10452,0.0099184,-0.017548,0.069429,0.07126
-0.103,0.1033,-0.12985,-0.19699,0.0050355,-0.0077821,0.09659,0.11246
-0.075532,0.048371,-0.070344,-0.073091,-0.048371,0.048371,0.15305,0.121
-0.072786,0.0053407,-0.033112,-0.10636,-0.049287,0.05539,0.12284,0.089876
-0.04593,-0.066987,0.00076295,-0.038911,-0.010224,0.011139,-0.10452,0.05539
-0.014496,-0.12161,0.019684,-0.047761,0.0032044,-0.025788,-0.33677,0.0035096
0.00076295,-0.1619,0.0206,-0.022736,0.024262,0.0068666,-0.064546,0.0090028
0.005951,-0.13443,0.002594,-0.028534,0.019684,0.010834,0.070039,0.017853
-0.0090028,-0.12558,-0.018158,-0.051118,0.064546,-0.067292,0.018158,-0.020294
-0.0035096,-0.081636,-0.032197,-0.038605,0.065766,0.0062562,0.060273,-0.023041
-0.013581,-0.043488,-0.048066,-0.08835,0.033722,0.11887,0.13199,-0.00015259
-0.024567,-0.026703,-0.055085,-0.085603,0.010529,0.24338,0.13413,0.011139
-0.022431,-0.0065614,-0.088655,-0.062715,-0.061189,0.38437,0.077974,-0.0080873
-0.037385,-0.0016785,-0.087129,-0.085603,0.026703,-0.0090028,-0.056916,-0.02884
-0.015717,-0.040131,-0.10147,-0.098726,0.08072,-0.55192,-0.070954,-0.02121
-0.041352,0.011749,-0.10513,-0.048981,-0.011444,-0.11551,-0.12314,-0.04654
-0.08896,0.070344,-0.13443,-0.009308,0.0053407,-0.023957,-0.19791,-0.041352
-0.051118,-0.0028992,-0.077974,-0.15091,0.048371,-0.041657,-0.14023,0.03769
-0.052033,0.041352,-0.10086,-0.18601,-0.0041199,-0.048066,-0.07187,0.02182
-0.056916,0.0206,-0.058137,-0.06302,-0.061494,-0.019989,0.057221,0.0080873
-0.034943,0.010224,-0.074922,-0.11154,-0.012665,0.052949,0.11429,0.013581
-0.01236,-0.084688,0.018463,-0.060578,-0.02945,0.045014,0.094148,-0.014191
-0.0022889,-0.058137,-0.019074,-0.084993,-0.086213,0.066682,0.088045,-0.0019837
0.028229,-0.085908,0.0032044,-0.099031,0.011749,0.016938,0.074617,0.014801
0.041047,-0.15946,0.025788,-0.0041199,0.037079,0.02121,0.057221,0.027314
0.017853,-0.15457,-0.0035096,-0.060578,0.043488,0.04654,0.031586,-0.020905
-0.022736,-0.060883,-0.034638,-0.046235,0.048371,0.040131,0.034333,0.0013733
0.0071717,-0.10025,-0.036469,-0.030976,0.061799,0.019074,0.010834,0.032197
-0.033112,-0.0022889,-0.091402,-0.14206,0.064546,0.016022,0.0080873,0.037079
-0.019074,-0.0038148,-0.084382,-0.021515,-0.00045777,0.02884,0.0035096,0.0056458
-0.02884,-0.00045777,-0.10361,-0.049287,-0.015412,-0.015717,-0.042878,-0.014801
-0.069123,0.071565,-0.16098,-0.13901,0.034333,-0.054475,-0.057832,-0.014191
-0.08011,0.066377,-0.13718,-0.1619,0.0019837,-0.02182,0.0047303,0.034028
-0.10391,0.049592,-0.11337,-0.11948,-0.053559,0.016632,0.035859,0.056306
-0.081025,-0.0065614,-0.082856,-0.091402,-0.062715,0.037995,0.04654,0.069429
-0.067597,-0.076143,-0.060578,-0.074922,-0.034638,0.030976,0.052338,0.072175
-0.012665,-0.12833,-0.018463,-0.031281,-0.015412,0.024567,0.041047,0.065766
0.017853,-0.044404,-0.043183,-0.034638,0.014801,0.0053407,0.019074,0.010834
0.0086976,-0.0028992,-0.040742,-0.012665,0.014191,0.0028992,0.0019837,-0.019379
0.019379,-0.023346,0.010224,-0.090791,-0.027314,0.037079,0.019379,-0.032807
0.024872,-0.061494,0.019379,-0.10056,0.0383,0.023346,0.0077821,-0.0795
0.04654,-0.11612,0.023346,0.052033,0.13565,0.009308,-0.002594,-0.048371
0.037079,-0.10483,-0.032807,-0.1268,0.085298,0.0028992,0.002594,-0.04654
0.031586,-0.15427,-0.00045777,-0.12375,-0.0010681,0.017853,-0.0022889,-0.047761
-0.0080873,-0.10819,-0.04593,-0.21592,-0.041657,0.005951,-0.025177,-0.077058
-0.029145,-0.08072,-0.08835,-0.014496,0.015412,-0.018769,-0.045319,-0.057832
-0.070954,0.032197,-0.11887,0.097505,0.0080873,-0.0056458,-0.024872,-0.0047303
-0.13169,0.12009,-0.13993,-0.18967,0.049592,-0.031891,-0.009308,0.061189
-0.14084,0.091707,-0.11246,-0.089265,-0.033112,0.034638,0.041657,0.13687
-0.1146,0.034028,-0.099641,-0.1088,0.011444,0.01297,0.049287,0.17014
-0.096284,0.043183,-0.1088,-0.10575,-0.0083925,0.015412,0.055695,0.14267
-0.085298,0.034028,-0.10758,-0.089265,-0.053864,0.034028,0.041657,0.095674
-0.04654,-0.00045777,-0.051728,-0.040436,-0.033417,0.01297,0.019074,0.048981
0.002594,-0.033417,-0.056001,-0.087434,-0.065461,0.0077821,0.02182,0.017548
0.023041,-0.079805,-0.022431,-0.11673,0.0035096,0.0062562,0.011749,-0.019074
0.046235,-0.11551,0.022431,-0.090486,0.093233,0.033112,0.0032044,-0.033417
0.070344,-0.11185,-0.0035096,-0.058747,0.024262,0.050507,0.032197,-0.024262
0.077974,-0.11032,0.0035096,-0.028229,-0.009308,0.022431,0.018769,-0.073091
0.053254,-0.099947,0.0041199,-0.016022,0.045014,-0.0056458,0.0038148,-0.092012
0.0099184,-0.10208,-0.0090028,0.00076295,0.088045,-0.019074,0.018158,-0.082246
-0.031586,-0.091402,-0.038911,-0.035554,0.07248,-0.033417,-0.013581,-0.070039
-0.044404,-0.068513,-0.049287,-0.12894,0.038911,-0.037385,-0.013275,-0.056611
-0.045319,-0.019684,-0.073091,-0.082551,0.035248,-0.033722,-0.0028992,-0.015412
-0.047761,0.0083925,-0.11093,-0.082856,0.011139,0.023041,-0.012055,0.023651
-0.068818,0.02945,-0.13169,-0.13107,-0.14145,0.062409,-0.11368,0.038911
-0.089265,0.063935,-0.13443,-0.12528,-0.20249,-0.016938,-0.25864,0.041047
-0.092927,0.061799,-0.13321,-0.12284,-0.056611,-0.0038148,0.015412,0.06302
-0.084382,0.034333,-0.099336,-0.10056,0.036164,-0.005951,0.098726,0.034943
-0.060883,0.026398,-0.096284,-0.099336,0.12253,-0.06363,0.013581,0.056001
-0.02884,-0.010834,-0.056611,-0.065461,0.16831,-0.026093,0.039216,0.07187
-0.019684,-0.064851,-0.023651,-0.023651,-0.074922,0.077668,0.074617,0.076143
-0.0053407,-0.1149,0.031891,-0.037385,-0.039521,0.034028,0.11063,0.059663
0.0019837,-0.08072,-0.010224,-0.076753,0.031586,0.023041,0.092927,-0.0047303
0.027314,-0.088655,-0.0065614,-0.05417,0.012665,0.036774,0.036774,-0.043793
0.041657,-0.094453,0.0096132,-0.042573,0.022126,0.020294,-0.0068666,-0.053559
0.036774,-0.09659,-0.0028992,0.018463,0.062104,-0.015412,-0.068818,-0.057221
0.0096132,-0.097505,-0.025483,-0.056611,0.062104,-0.013581,-0.044404,-0.062715
-0.04715,-0.022126,-0.065766,-0.17136,0.047761,0.03006,0.0019837,-0.041352
-0.067903,-0.013581,-0.082246,-0.048981,-0.01297,0.080415,0.1146,-0.03769
-0.058747,-0.0062562,-0.094759,-0.11521,0.0010681,0.049592,0.088045,0.0068666
-0.04715,-0.01297,-0.085908,-0.1207,0.02182,0.014191,-0.0044251,0.043183
-0.068818,0.019074,-0.103,-0.10666,-0.031281,0.0019837,-0.08896,0.043488
-0.066682,-0.0041199,-0.044099,-0.013275,-0.066987,-0.019379,-0.04715,0.074311
-0.07126,-0.030671,-0.08957,-0.0972,-0.04654,-0.011444,0.074006,0.10544
-0.056611,0.027924,-0.15488,-0.14694,0.057527,0.00015259,0.10147,0.090486
-0.05539,0.028534,-0.12955,-0.067292,-0.018158,0.035248,0.083772,0.074006
-0.051118,0.026703,-0.081331,-0.074617,-0.0383,-0.0080873,0.026093,0.018769
-0.049897,0.0080873,-0.046845,-0.11063,-0.0044251,-0.012055,0.07126,0.05539
-0.012055,-0.041352,0.0062562,-0.068513,0.0053407,0.022431,0.10544,0.048981
0.022736,-0.11154,0.02182,-0.16526,0.012055,0.034028,0.11093,-0.0010681
0.031586,-0.15793,0.023957,0.18814,0.066072,0.010224,0.11582,-0.044404
0.037995,-0.16037,0.038911,-0.074922,0.071565,0.032807,0.029145,-0.04654
0.041962,-0.15793,-0.01236,-0.15091,0.043183,0.03006,-0.38041,-0.067597
0.034333,-0.14603,-0.034028,-0.012055,0.015717,0.022736,-0.27146,-0.061799
0.0086976,-0.060883,-0.058137,-0.030671,0.029755,-0.023041,-0.11551,-0.066682
-0.0206,0.0010681,-0.090486,-0.06363,-0.013275,-0.039826,-0.10391,-0.054475
-0.042878,0.022126,-0.1091,-0.08957,-0.032502,-0.0041199,0.1091,-0.020905
