-0.1265,0.077363,-0.11276,-0.13321,-0.048981,0.0041199,0.02121,0.095674
-0.11337,-0.036164,-0.04715,-0.12314,-0.069734,0.04654,0.057221,0.12284
-0.065766,-0.10483,-0.0013733,-0.085908,-0.028534,0.037995,0.065766,0.14908
-0.029145,-0.13626,-0.039216,-0.0022889,0.041047,-0.02945,0.064546,0.12985
0.039826,-0.2269,-0.0068666,0.0047303,0.052338,-0.010834,0.051118,0.10483
0.063325,-0.12406,-0.062409,-0.093538,0.093843,-0.033417,-0.0050355,0.039826
0.052949,-0.061799,0.029755,-0.055695,-0.01297,0.045624,-0.041657,-0.04654
0.06302,-0.070954,0.0056458,-0.0053407,-0.13443,0.17014,-0.029755,-0.089265
0.044099,-0.040131,-0.044099,-0.11856,0.0010681,0.034943,-0.036469,-0.10941
0.035859,-0.062409,-0.069429,-0.076448,0.083772,-0.045624,-0.020905,-0.10422
0.039216,-0.046235,-0.075837,-0.031586,0.043488,0.0028992,0.044404,-0.078889
0.0086976,-0.027924,-0.030976,-0.074617,0.053864,-0.0086976,-0.012665,-0.069123
-0.048371,0.053254,-0.076448,-0.12497,0.044404,-0.019684,-0.022736,-0.055695
-0.085298,0.010529,-0.07248,-0.053254,0.013886,-0.01297,-0.0013733,0.0041199
-0.0972,-0.0047303,-0.10666,-0.058747,0.075227,-0.012055,0.013581,0.077668
-0.10422,0.0383,-0.12161,-0.11643,0.081331,-0.0019837,0.02182,0.10697
-0.070039,-0.0022889,-0.06424,-0.10513,-0.011444,0.018463,0.031586,0.12802
-0.066072,-0.042573,-0.103,-0.08957,-0.041962,0.021515,0.045014,0.11826
-0.052033,0.025788,-0.090486,-0.12375,-0.087129,0.032197,0.048371,0.098116
-0.020294,0.0077821,-0.034028,-0.095674,-0.056001,-0.0016785,0.03769,0.09781
-0.014496,-0.0038148,-0.042878,-0.059663,-0.00076295,-0.043488,-0.02945,0.045319
-0.011444,-0.038911,-0.038911,-0.064546,0.089265,-0.015717,-0.13016,-0.02945
0.01297,-0.095674,-0.0038148,-0.027314,-0.11765,0.037079,-0.13077,-0.056916
0.013275,-0.12345,0.019379,-0.028229,-0.31693,0.068208,0.02945,-0.077668
0.017853,-0.12436,-0.030976,-0.046845,0.24155,-0.0056458,0.099031,-0.077363
0.0096132,-0.13993,-0.02182,-0.075837,0.074617,-0.0041199,0.056001,-0.081025
0.017853,-0.056306,-0.040131,-0.066377,0.065461,-0.016938,-0.015412,-0.10117
-0.0071717,-0.0013733,-0.07126,-0.08957,0.076143,-0.0074769,-0.02884,-0.078889
0.00076295,-0.02884,-0.077363,-0.084993,0.02121,0.027924,0.052949,-0.020294
-0.022431,-0.0056458,-0.11734,-0.082856,0.015106,0.02945,0.099031,0.013886
-0.053864,0.023651,-0.044404,-0.080415,0.014801,0.016938,0.022126,0.0086976
-0.075837,0.0010681,-0.091096,-0.093538,0.011139,-0.0056458,-0.073091,0.013275
-0.12345,0.062409,-0.12711,-0.10147,0.0013733,-0.033417,-0.094148,0.015412
-0.11948,0.059663,-0.10941,-0.052338,-0.0065614,0.012055,0.070344,0.075227
-0.13596,0.064546,-0.10422,-0.18112,-0.0022889,0.034333,0.077363,0.10239
-0.15091,0.031281,-0.059052,-0.093538,-0.015412,0.023957,0.00076295,0.11795
-0.13169,-0.0028992,-0.041047,-0.057221,-0.041657,0.0206,-0.010834,0.16709
-0.089876,-0.045624,-0.019684,-0.075227,-0.012055,0.00045777,0.04715,0.18875
-0.02121,-0.084993,0.005951,-0.074617,-0.0083925,0.026093,0.092622,0.16464
0.026093,-0.14023,0.019989,-0.055085,0.0096132,0.036469,0.065156,0.08072
0.089876,-0.17166,0.023346,-0.037079,0.026093,0.027314,0.032197,-0.0096132
0.10422,-0.13993,-0.050507,-0.044404,0.042878,0.016938,-0.0010681,-0.068208
0.072786,-0.11551,-0.062104,-0.050813,0.057832,0.0053407,-0.016632,-0.11551
0.059968,-0.045319,-0.090181,-0.060273,0.047761,0.00015259,-0.0035096,-0.1091
0.065156,-0.08835,-0.046845,-0.048981,0.042878,0.016022,-0.0071717,-0.0972
0.011139,-0.050813,-0.050507,-0.059358,0.045014,0.013275,-0.049897,-0.10391
-0.033112,-0.0077821,-0.11429,-0.091402,0.033722,-0.015412,-0.060883,-0.0795
-0.05478,0.04593,-0.10239,-0.11276,0.023651,-0.027314,-0.030976,-0.0090028
-0.057221,-0.018769,-0.052949,-0.11948,-0.0035096,-0.010224,0.033112,0.01297
-0.07126,-0.023346,-0.13474,-0.13321,-0.035248,0.00076295,0.085298,0.071565
-0.079805,0.053254,-0.11521,-0.12497,-0.058747,0.022431,0.075837,0.12772
-0.074617,0.056306,-0.061189,-0.068208,-0.053864,0.048066,0.12467,0.11368
-0.034638,-0.024567,-0.01236,-0.044404,-0.035554,0.0383,0.088655,0.033417
-0.0013733,-0.045624,-0.030671,-0.083467,0.0056458,0.010529,0.044404,-0.043488
0.0047303,-0.05417,-0.033722,-0.074922,0.0077821,0.016632,-0.10636,-0.071565
0.027924,-0.097505,-0.00045777,-0.0383,0.0080873,-0.023346,-0.44236,-0.085298
0.049897,-0.11673,-0.028534,-0.042573,0.024872,-0.03006,-0.16007,-0.051118
0.057527,-0.14206,-0.022431,-0.061494,0.045624,-0.0086976,0.027314,-0.083772
0.053254,-0.12863,-0.025483,-0.040436,0.055085,-0.014801,0.011139,-0.058137
0.018769,-0.052644,-0.041657,-0.050202,0.032807,0.012055,0.033417,-0.045319
-0.041657,0.0047303,-0.06424,-0.066987,0.034028,0.019379,0.055695,-0.031891
-0.10544,0.019074,-0.044709,-0.027008,0.027619,0.031281,0.085908,-0.0062562
-0.12161,0.067903,-0.09659,-0.0795,0.0086976,0.030671,0.092317,-0.0090028
-0.13809,0.08835,-0.11643,-0.14054,-0.00045777,0.0038148,0.065461,0.051118
-0.10208,0.093843,-0.14176,-0.10727,0.051423,-0.014801,-0.0032044,0.10147
-0.08957,-0.024567,-0.044404,-0.072175,0.073396,-0.016938,-0.039521,0.13382
-0.079194,-0.048371,-0.068513,-0.091707,0.047761,-0.12558,-0.082246,0.14206
-0.092317,0.044404,-0.11246,-0.11063,0.045319,-0.089265,-0.017548,0.074617
-0.089876,0.02945,-0.091096,-0.13291,-0.092012,0.10941,0.1735,0.098726
-0.10849,0.013886,-0.051728,-0.11887,-0.30533,0.1207,0.16526,0.11856
-0.069734,-0.02945,-0.042878,-0.073701,-0.20706,0.095064,0.20645,0.11093
0.002594,-0.10025,0.028534,-0.023651,0.018158,0.065766,0.22202,0.098421
0.04593,-0.12833,-0.00015259,-0.048371,0.083772,0.024567,0.10697,0.027619
0.05417,-0.10422,-0.018769,-0.062409,0.086824,-0.016327,-0.29587,-0.071565
0.069123,-0.11673,-0.027924,-0.047761,0.076448,-0.031891,-0.34012,-0.10636
0.062409,-0.13474,-0.0099184,-0.05478,0.077668,-0.0053407,0.017243,-0.085603
0.048066,-0.15427,-0.019989,-0.052338,0.069734,0.018463,0.024872,-0.086824
0.036774,-0.13077,-0.046845,-0.057221,0.055695,0.0050355,0.02121,-0.051118
0.026093,-0.12253,-0.05417,-0.071565,0.031586,0.014801,0.025483,-0.057221
0.0047303,-0.041962,-0.068818,-0.075227,-0.031281,0.014191,-0.0010681,-0.09781
-0.036774,0.045624,-0.11643,-0.087434,-0.077363,-0.0053407,-0.0035096,-0.061799
-0.028229,0.10727,-0.15885,-0.11795,-0.016938,0.00015259,0.0038148,-0.0047303
-0.036469,0.12741,-0.13993,-0.11063,-0.0053407,-0.010224,0.0074769,0.023041
-0.054475,0.061799,-0.08957,-0.12131,0.20493,-0.06363,0.0068666,0.031586
-0.07126,0.049592,-0.092622,-0.10971,0.18296,0.0086976,0.032197,0.045014
-0.087739,0.017243,-0.044099,-0.080415,-0.18265,0.059358,0.045014,0.075227
-0.095064,-0.087434,-0.010834,-0.066682,-0.07126,0.00045777,0.017243,0.08011
-0.069429,-0.15274,-0.00015259,-0.056916,-0.016327,0.022126,0.009308,0.058442
-0.00045777,-0.15579,0.009308,-0.033417,-0.021515,0.036164,0.0035096,0.065766
0.02121,-0.1323,-0.074311,-0.027314,0.013581,0.021515,0.017853,0.036774
0.027924,-0.068208,-0.022431,-0.033722,0.046845,-0.0050355,-0.024872,-0.0035096
-0.016327,-0.00015259,-0.039826,-0.1088,0.052949,-0.0080873,-0.034943,-0.034333
-0.0090028,-0.034943,-0.0086976,-0.067597,0.023651,0.0010681,-0.012665,-0.033417
0.005951,-0.066377,-0.05417,-0.057527,0.0099184,-0.00076295,0.049897,-0.018158
-0.0096132,0.01236,-0.077058,-0.082246,0.016022,0.043183,0.11093,-0.043793
-0.016327,-0.034028,-0.068513,-0.077058,0.027008,0.03006,0.067292,-0.077058
-0.027008,-0.069429,-0.079194,-0.048676,0.033112,-0.042267,-0.028229,-0.058747
-0.033722,-0.053559,-0.121,-0.052949,0.031281,-0.069123,-0.0083925,0.019989
-0.073701,0.04593,-0.13474,-0.12741,0.040131,-0.10178,-0.016327,0.039216
-0.11978,0.11826,-0.098116,-0.11978,-0.077058,0.052949,-0.012665,0.026093
-0.15183,0.13352,-0.081331,-0.20005,-0.15335,0.18967,0.061799,0.062409
-0.11948,0.057527,-0.046235,-0.11978,-0.072786,0.056916,0.099641,0.098116
-0.065156,-0.02945,-0.019684,-0.070649,-0.032502,-0.026398,0.019379,0.10208
-0.019684,-0.060273,0.0038148,-0.033112,-0.024262,-0.031891,-0.16403,0.065156
0.0068666,-0.11734,0.029755,0.010529,0.0206,-0.011444,-0.032807,0.055085
0.032197,-0.13291,-0.016327,-0.025483,0.075837,0.0065614,0.038911,0.019989
0.062409,-0.17563,-0.063325,-0.033112,0.092317,0.014191,0.014801,-0.025177
0.053559,-0.092622,-0.050507,-0.061494,0.063935,0.0083925,0.043793,-0.046845
0.057221,-0.067597,0.010529,-0.024872,0.052338,0.0065614,0.074617,-0.039216
0.050202,-0.15396,0.027924,-0.070649,0.042878,0.0065614,0.068208,-0.038605
0.02121,-0.16953,-0.092622,-0.14206,0.056001,-0.010834,-0.076143,-0.049287
-0.023651,-0.027314,-0.11856,-0.093233,0.018158,0.011139,-0.13169,-0.048371
-0.066682,0.059663,-0.095979,-0.093538,0.015412,0.047456,0.03006,-0.019074
-0.07187,0.065156,-0.10117,-0.08957,0.030976,0.021515,0.081941,0.017243
-0.073396,0.07126,-0.11826,-0.091402,0.014801,-0.023041,0.01297,0.022126
-0.084993,0.048066,-0.10941,-0.044404,-0.017243,-0.024872,0.04654,0.040436
-0.072175,0.02945,-0.055695,-0.06363,-0.033417,-0.0038148,0.039521,0.060273
-0.059663,0.0383,-0.121,-0.14755,-0.06302,0.016632,-0.0068666,0.076753
-0.038605,0.019379,-0.074006,-0.069123,-0.12589,0.021515,-0.056916,0.067292
-0.013275,-0.046235,-0.020905,-0.14908,-0.015717,0.0044251,-0.11002,0.045014
-0.0041199,-0.07248,-0.046845,-0.068208,0.023041,0.0047303,-0.044404,0.032197
0.011139,-0.07248,-0.01297,-0.038605,-0.017548,0.015412,0.057527,0.01297
0.023346,-0.099947,-0.0083925,-0.044709,0.017243,0.040742,0.082246,-0.020905
0.027619,-0.073701,-0.015717,-0.065156,0.042267,0.042573,0.10422,-0.027314
0.025788,-0.081941,-0.029755,-0.042267,0.050202,0.0022889,0.063325,-0.024262
-0.0065614,-0.08072,-0.0383,-0.036469,0.063935,-0.02182,0.033417,-0.067597
0.0035096,-0.10208,-0.030365,-0.035554,0.069123,-0.0090028,0.034028,-0.059052
-0.010529,-0.10391,-0.033112,-0.053559,0.046845,-0.0074769,-0.14755,-0.048676
-0.040742,-0.076753,-0.023651,-0.077363,0.053864,-0.026398,-0.25315,-0.053254
-0.090791,-0.051423,-0.1091,-0.1088,0.027619,0.014496,0.099031,-0.024262
-0.12253,0.052644,-0.13291,-0.12161,-0.017243,0.034333,0.082246,-0.041657
-0.13779,0.12619,-0.11368,-0.10971,-0.042878,0.018463,0.028229,-0.0044251
-0.15183,0.12863,-0.10636,-0.10239,-0.041047,0.013275,0.041352,0.088655
-0.093843,0.063325,-0.099031,-0.08835,-0.034638,0.016022,0.035554,0.11582
-0.056611,0.043793,-0.10819,-0.082856,-0.014496,0.0080873,0.047456,0.11063
-0.04593,0.02182,-0.074922,-0.064851,-0.0090028,-0.010834,0.03769,0.099031
-0.039216,-0.062104,-0.030671,-0.088655,0.0016785,-0.028229,0.00076295,0.081636
-0.019074,-0.13443,-0.0062562,-0.086824,0.0047303,0.016327,0.019684,0.07248
0.037995,-0.19242,0.037995,-0.045624,-0.011444,0.05417,0.037385,0.069734
0.048981,-0.15457,0.0062562,-0.033112,0.011139,0.032807,-0.01297,0.0090028
0.037385,-0.076143,-0.048371,-0.059663,0.044099,0.0028992,-0.044709,-0.040436
0.061494,-0.10544,-0.030671,-0.034333,0.039826,0.0077821,0.002594,-0.063935
0.061494,-0.10056,-0.028229,-0.046845,0.033722,0.027008,0.042878,-0.070954
0.055695,-0.084993,-0.026398,-0.048676,0.069123,0.0028992,0.002594,-0.11215
0.059358,-0.078584,-0.045014,-0.045624,0.07187,-0.012665,-0.018158,-0.13535
-0.0041199,0.026398,-0.11154,-0.10361,0.058442,-0.022736,-0.038605,-0.11337
-0.067292,0.05417,-0.10941,-0.14206,0.0086976,0.0053407,-0.028229,-0.054475
-0.11337,0.033417,-0.10422,-0.13596,-0.053864,0.040742,0.025483,-0.002594
-0.12222,0.048676,-0.11429,-0.1091,-0.065156,0.0065614,0.059052,0.067903
-0.096284,0.05539,-0.10758,-0.14084,-0.030365,0.00076295,0.074617,0.1561
-0.095979,0.074006,-0.10727,-0.12161,-0.027314,0.06302,0.075227,0.15549
-0.10788,0.034333,-0.08957,-0.057527,-0.046845,0.14481,0.038911,0.12253
-0.067597,-0.026703,-0.0077821,-0.04715,-0.086213,0.23178,-0.013275,0.096895
-0.055085,-0.085908,-0.022126,-0.067597,0.12314,-0.27665,0.0035096,0.045624
-0.039826,-0.094148,-0.019684,-0.084688,0.15915,-0.24918,0.14328,0.055085
0.012665,-0.13169,0.026398,-0.056916,0.0035096,0.1265,0.099947,0.065461
0.035554,-0.13474,0.0062562,-0.024872,0.095979,0.028229,-0.0032044,0.0038148
0.061494,-0.11551,-0.059968,-0.016938,0.085603,-0.065766,-0.092927,-0.053559
0.051423,-0.069734,-0.02182,-0.027314,-0.12039,-0.10605,-0.16007,-0.068818
0.03006,-0.10636,-0.0035096,-0.052949,-0.43137,0.059358,-0.064546,-0.079194
0.021515,-0.056306,-0.041962,-0.073091,-0.032807,0.026703,-0.21866,-0.077058
-0.015106,-0.044099,-0.14664,-0.093233,0.25589,-0.036164,0.0071717,-0.025483
-0.045319,0.0047303,-0.097505,-0.10117,0.018158,0.017243,0.16556,0.029145
-0.048676,0.05417,-0.10697,-0.086824,0.075227,0.031281,0.098726,0.030365
-0.073091,0.09659,-0.11215,-0.10361,0.015412,0.044404,0.094453,0.0071717
-0.095064,0.051728,-0.080415,-0.13962,0.0068666,0.033112,0.10758,0.019989
-0.10788,0.071565,-0.13138,-0.11398,-0.00076295,0.029145,0.075837,0.042878
-0.081025,0.0206,-0.049897,-0.10361,-0.024567,0.018769,-0.22141,0.059663
-0.0065614,-0.10849,0.014801,-0.038911,-0.025177,0.0086976,-0.1738,0.042267
0.00045777,-0.12955,-0.026398,-0.039216,0.0019837,-0.0056458,0.027619,0.019684
0.012665,-0.1326,-0.056916,-0.075227,0.033722,-0.0090028,0.034333,0.0010681
0.0010681,-0.082246,-0.015717,-0.068513,0.030976,0.0062562,0.026703,-0.018463
0.0053407,-0.024872,-0.016327,-0.051728,0.017548,0.023346,0.047456,-0.030976
0.010834,-0.014801,-0.044404,-0.063325,0.026093,0.035554,0.059052,-0.035859
0.019684,-0.077363,-0.052033,-0.069734,0.026093,0.025483,0.040436,-0.065156
-0.0090028,-0.071565,-0.016327,-0.059052,-0.0028992,0.025483,0.027008,-0.062715
-0.030671,-0.090791,-0.023651,-0.056306,-0.060883,0.030976,0.0080873,-0.043183
-0.030671,-0.057832,-0.084077,-0.092622,-0.025177,0.026703,0.027619,-0.02121
-0.015106,-0.049897,-0.081941,0.018463,0.0013733,0.018158,0.041657,0.016632
-0.035248,0.0044251,-0.095979,-0.093843,0.10697,-0.034333,0.015412,0.002594
-0.066072,0.027619,-0.13138,-0.10239,0.38651,-0.092317,-0.026703,-0.0019837
-0.073396,0.0019837,-0.073091,-0.054475,-0.010834,0.035248,0.0050355,0.069734
-0.10025,0.040131,-0.039216,-0.17655,-0.1265,0.016938,0.029755,0.07126
-0.081025,-0.005951,-0.090181,-0.11032,-0.043793,0.02121,0.053254,0.069429
-0.081331,-0.01236,-0.12833,-0.076753,-0.086824,0.058137,0.12253,0.098726
-0.066072,0.042573,-0.041657,-0.09781,-0.051423,0.0022889,0.08072,0.062104
-0.047456,0.066377,-0.056001,-0.11978,-0.034638,-0.0077821,0.024262,0.031586
-0.0032044,0.013886,-0.04654,-0.084688,-0.0044251,0.019989,0.063325,0.036774
0.014801,-0.065766,-0.014801,-0.046235,0.0038148,0.031281,-0.11185,0.036774
0.030976,-0.13413,-0.0038148,-0.011444,0.019684,-0.010224,-0.41245,-0.041657
0.029755,-0.18631,0.0099184,-0.068818,0.026093,0.010224,0.02182,-0.050813
0.05539,-0.20798,-0.0080873,-0.036774,0.023957,0.018463,0.12497,-0.011139
0.033417,-0.12558,-0.015412,-0.017243,0.033417,0.012665,0.034943,-0.011444
0.011749,-0.056611,-0.064546,-0.051728,0.048981,-0.022126,0.0065614,-0.034638
-0.0019837,-0.019684,-0.085298,-0.092317,0.045319,0.013275,0.00076295,-0.053864
-0.02121,0.019074,-0.11978,-0.085908,0.01297,0.022431,0.059052,-0.055695
-0.023346,0.0056458,-0.076143,-0.077668,0.0038148,0.0032044,0.027314,-0.040436
-0.051423,0.04715,-0.081331,-0.09781,0.0074769,0.0065614,-0.0071717,-0.050507
-0.10361,0.059663,-0.10819,-0.12497,-0.0028992,-0.0074769,-0.024872,-0.013581
-0.10575,0.057832,-0.086519,-0.10849,-0.025788,-0.0022889,-0.0010681,0.089265
-0.10758,0.055695,-0.087129,-0.10452,-0.038605,0.0044251,0.029755,0.1387
-0.081331,0.058137,-0.090791,-0.11124,-0.018463,-0.012665,0.059968,0.15305
-0.035859,-0.0035096,-0.050507,-0.092927,-0.0080873,-0.00015259,0.10086,0.15732
-0.015717,-0.048676,-0.055695,-0.079194,0.0050355,0.0038148,0.098116,0.10025
0.0053407,-0.09781,-0.032197,-0.046845,0.02121,0.02884,0.091402,0.055085
0.021515,-0.1445,0.016022,-0.023651,0.00045777,0.06302,0.071565,0.037385
0.050507,-0.20493,0.0053407,-0.038911,0.00045777,0.018158,-0.029145,-0.089265
0.048066,-0.19883,0.016327,-0.043488,-0.049287,0.0090028,-0.044709,-0.16312
0.0032044,-0.10636,-0.040436,-0.056611,0.011444,0.026703,-0.048676,-0.15
0.0013733,-0.043488,-0.061799,-0.05478,0.10605,0.0050355,-0.034943,-0.085908
0.0077821,-0.02182,-0.055695,-0.079805,0.090791,-0.034028,-0.021515,-0.08072
-0.012055,-0.05478,-0.0206,-0.05539,0.059052,-0.078279,-0.029755,-0.074006
-0.075532,0.010529,-0.11948,-0.087129,0.061799,-0.090486,-0.023346,-0.023041
-0.10941,0.043488,-0.086824,-0.103,-0.035248,0.072175,0.016938,0.0038148
-0.12345,0.019989,-0.094148,-0.11093,-0.11917,0.18112,0.096895,0.073396
-0.092927,0.055695,-0.11826,-0.10941,-0.038605,0.042573,0.042878,0.11307
-0.072786,0.048371,-0.054475,-0.082551,0.0010681,-0.0053407,-0.012665,0.11765
-0.058747,0.029755,-0.10422,-0.099031,0.0086976,-0.029755,-0.064851,0.092927
-0.055085,0.00015259,-0.059052,-0.084993,0.0080873,-0.018769,0.0056458,0.04715
-0.031281,0.0074769,-0.039826,-0.059358,-0.022431,0.024262,0.04715,0.012665
-0.047456,-0.017853,-0.048676,-0.11673,0.0019837,0.025483,0.025788,0.023041
-0.035554,-0.050813,-0.10361,-0.088655,-0.002594,0.0206,-0.020905,0.013275
0.015412,-0.11032,-0.032197,-0.07126,0.010834,-0.005951,-0.087434,-0.0090028
0.054475,-0.18601,0.023651,0.011444,0.032807,0.011444,0.013886,-0.0071717
0.061799,-0.17685,0.045624,-0.026398,0.058137,0.016938,0.027008,-0.040742
0.048066,-0.053559,-0.067903,-0.11917,0.10452,-0.044099,-0.023651,-0.073091
0.045624,-0.032807,-0.041657,-0.0068666,0.052338,-0.023041,0.017548,-0.071565
0.002594,-0.024567,-0.059052,-0.026093,0.065461,-0.011139,0.04593,-0.042878
-0.0019837,-0.0383,-0.042573,-0.10361,0.081941,0.014496,0.049592,0.016938
-0.057527,-0.016327,-0.05417,-0.16068,-0.017243,0.041047,0.054475,0.035554
-0.091707,-0.00076295,-0.072786,-0.098421,-0.039826,0.029145,0.034028,0.053559
-0.075532,-0.013886,-0.10666,-0.072786,-0.019684,0.031586,0.03769,0.098726
-0.11429,0.06424,-0.14969,-0.10452,-0.0071717,0.028534,0.02945,0.079805
-0.12222,0.055085,-0.13443,-0.12558,-0.023041,0.0041199,0.016938,0.074311
-0.11734,0.048066,-0.10208,-0.12894,-0.059968,-0.019074,-0.002594,0.095369
-0.061189,-0.0086976,-0.044099,-0.070649,-0.045624,-0.086519,0.011749,0.11429
-0.016327,-0.046845,-0.032502,-0.065156,-0.020294,0.034028,0.069123,0.10575
0.02182,-0.061799,0.0074769,-0.029145,-0.00045777,0.050202,0.018769,0.033722
0.026093,-0.040742,0.00015259,-0.069734,0.027314,0.0062562,-0.075532,-0.041352
0.049897,-0.087739,-0.072175,-0.07126,0.034943,0.0032044,-0.055695,-0.078279
0.058442,-0.1207,0.0041199,-0.037385,0.024872,0.018769,-0.0010681,-0.10727
0.063325,-0.121,0.0083925,-0.0071717,0.045014,0.015412,-0.0062562,-0.13626
0.045319,-0.1146,-0.016022,-0.00076295,0.065156,0.00045777,-0.015717,-0.13565
0.027008,-0.10391,-0.038605,-0.065461,0.065461,-0.0013733,0.0032044,-0.099031
-0.0071717,-0.10239,-0.052033,-0.103,0.032807,0.0028992,0.026703,-0.061799
-0.043793,-0.033417,-0.0972,-0.091707,-0.00045777,0.019074,0.019379,-0.026398
-0.10544,0.048066,-0.11673,-0.10971,-0.002594,0.016327,0.036164,0.017243
-0.073091,0.050507,-0.11246,-0.1033,-0.0035096,0.0099184,0.038911,0.082856
-0.062104,0.04654,-0.11704,-0.086519,-0.017243,0.011139,0.021515,0.091707
-0.068818,0.063935,-0.11948,-0.09781,-0.01297,-0.0032044,0.011749,0.12039
-0.069429,0.07248,-0.0972,-0.11063,-0.019379,-0.0047303,0.017243,0.1384
-0.071565,-0.032197,0.014496,-0.082551,0.00045777,0.0099184,0.028229,0.11826
-0.041352,-0.13138,-0.04715,-0.07126,0.018769,0.0083925,0.042267,0.073701
-0.045319,-0.10758,-0.078279,-0.10544,0.02945,0.0013733,0.009308,-0.012665
-0.041047,-0.028229,-0.0056458,-0.085603,0.049592,0.0071717,0.002594,-0.03769
-0.024262,-0.07187,0.018463,-0.022431,-0.034638,0.095369,0.066072,-0.029145
-0.049592,-0.05478,-0.0383,-0.053254,-0.18692,0.15,0.035248,-0.052033
-0.044404,-0.029755,-0.026093,-0.05539,-0.10513,0.081331,0.033722,-0.033722
-0.038605,0.0099184,-0.030365,-0.026093,0.10178,0.099641,0.074006,-0.0090028
-0.041352,-0.032807,-0.027619,-0.061799,0.13993,0.13107,-0.012665,-0.039216
-0.025177,-0.065461,-0.044404,-0.11368,0.11093,-0.023041,0.086824,0.0013733
-0.0013733,-0.10788,-0.053864,-0.077363,-0.040742,-0.58335,0.013275,0.052033
-0.049287,-0.090181,-0.075837,-0.084993,-0.019684,-0.14145,-0.26535,0.051118
-0.031586,-0.096895,-0.082856,-0.048371,0.0077821,0.1738,-0.11063,0.080415
-0.016327,-0.0065614,-0.12497,-0.08957,-0.0028992,0.03006,0.17014,0.10636
-0.035248,0.14115,-0.13718,-0.12985,0.025788,0.032807,0.039216,0.050202
-0.02884,0.099641,-0.103,-0.099336,0.0050355,0.041657,0.026093,0.0080873
-0.032502,0.048066,-0.095979,-0.092317,-0.0074769,0.030365,-0.009308,-0.002594
-0.0050355,-0.0206,-0.092622,-0.078279,0.0041199,0.011444,-0.083772,-0.045014
0.015717,-0.045319,-0.020294,-0.096895,0.0096132,0.0047303,-0.020294,-0.05539
0.0056458,-0.069734,-0.0083925,-0.062409,-0.014801,0.0065614,0.051423,-0.061799
0.0010681,-0.072175,-0.02884,-0.020905,-0.017548,0.014191,0.042878,-0.01236
-0.0068666,-0.060883,-0.023041,-0.054475,0.027619,0.028534,0.054475,0.032807
-0.0071717,-0.099641,-0.02182,-0.074922,0.08835,0.042573,0.051423,0.098116
0.013886,-0.16678,-0.013581,-0.080415,0.064546,0.027314,-0.014496,0.034028
0.034333,-0.15457,-0.01297,-0.064851,0.0068666,-0.020294,-0.048676,-0.044709
0.031281,-0.14664,-0.0056458,-0.031281,-0.0795,-0.0050355,-0.10147,-0.083467
-0.0013733,-0.075532,-0.066987,-0.06302,-0.023041,0.026703,-0.034638,-0.064851
-0.028534,0.028229,-0.088045,-0.10636,0.039216,0.002594,0.081941,-0.0044251
-0.070649,0.065156,-0.087434,-0.092622,0.034943,-0.0090028,0.029755,-0.019379
-0.075837,0.037079,-0.077058,-0.053254,0.3032,-0.033722,0.022126,-0.00045777
-0.093538,0.089265,-0.13962,-0.1033,0.073396,0.026703,0.024262,0.033112
-0.14084,0.11734,-0.11704,-0.12924,-0.13565,-0.0068666,0.027924,0.029145
-0.11337,0.047761,-0.11154,-0.1268,-0.044404,0.044404,0.059358,0.037385
-0.081025,0.0038148,-0.061799,-0.08835,-0.087739,0.18845,0.12528,0.060578
-0.04715,-0.0022889,-0.065156,-0.058442,-0.16892,0.31876,0.067597,0.062409
-0.028229,-0.061799,-0.017548,-0.061189,-0.013581,-0.11582,-0.052949,0.055085
0.026703,-0.1442,0.022736,0.0077821,0.11673,-0.37217,-0.048676,0.14694
0.042267,-0.098726,-0.037079,-0.068208,0.052338,-0.010834,-0.079805,0.060578
0.039521,-0.092317,-0.025788,-0.085603,0.023957,-0.0056458,-0.061189,-0.055695
0.036774,-0.091402,-0.033112,-0.046845,0.031281,0.020905,-0.0047303,-0.029145
0.044099,-0.14939,-0.0038148,-0.041657,0.12314,0.017243,-0.0032044,-0.027314
0.034943,-0.14481,-0.030671,-0.061494,0.13443,-0.0047303,0.016938,-0.042573
-0.0065614,-0.070954,-0.049897,-0.12467,0.084077,0.0068666,0.093538,-0.028229
-0.049897,-0.045624,-0.046845,-0.037385,-0.36454,0.084382,0.09781,0.014191
-0.081636,0.015412,-0.065156,-0.075837,-0.12161,0.074311,0.072786,0.051118
-0.085298,0.047761,-0.1091,-0.12863,0.24521,0.00076295,0.092622,0.052949
-0.092012,0.095674,-0.11521,-0.092622,0.00076295,0.024872,0.070039,-0.0056458
-0.083162,0.067292,-0.10147,-0.085298,0.037995,0.034028,0.059968,0.010834
-0.058747,-0.00015259,-0.091402,-0.086519,-0.0056458,0.041352,0.0383,0.068513
-0.064851,0.044709,-0.14511,-0.1387,-0.059052,0.015106,-0.0065614,0.017548
-0.031281,-0.035859,-0.056611,-0.1088,-0.11551,-0.0071717,-0.035859,-0.029145
-0.035248,-0.05539,-0.0080873,-0.059358,-0.08896,-0.0099184,-0.057527,-0.026398
-0.042573,-0.02182,-0.058442,-0.079805,0.033112,-0.016022,-0.04715,-0.017243
-0.056001,-0.036469,-0.040436,-0.075837,0.030365,0.01297,0.0096132,0.036164
-0.019379,-0.088045,-0.0053407,-0.047456,0.017243,0.032197,0.037995,0.078279
0.019684,-0.10025,-0.016022,-0.043183,0.046235,0.022736,0.015717,0.062409
0.012055,-0.06363,-0.044099,-0.037385,0.056306,0.020294,-0.0065614,0.0019837
0.025177,-0.10025,-0.0062562,-0.050202,0.06424,0.034943,-0.0083925,-0.033417
0.06424,-0.17746,0.03769,-0.023041,0.092317,-0.016022,0.027924,-0.067292
0.023346,-0.090486,-0.015412,-0.045319,0.10422,-0.070649,0.041352,-0.099031
0.0053407,-0.034028,-0.10727,-0.072786,0.090486,-0.087739,0.033417,-0.099031
-0.014191,-0.044404,-0.074922,-0.099336,0.059052,-0.058442,0.088655,-0.055085
-0.051118,0.03769,-0.14176,-0.11521,-0.084688,0.12497,0.01297,0.0038148
-0.08957,0.058137,-0.099641,-0.12131,-0.13962,0.16342,-0.31662,0.037385
-0.054475,0.0053407,-0.070954,-0.13138,-0.04654,0.050202,-0.0972,0.076753
-0.045014,0.021515,-0.10025,-0.09781,-0.013275,0.0019837,0.11398,0.085298
-0.07126,0.062715,-0.10117,-0.12497,-0.020905,-0.016022,0.0047303,0.033112
-0.055695,0.039521,-0.052949,-0.025177,-0.026398,-0.0016785,0.020905,0.037079
-0.0056458,-0.066072,-0.034028,-0.043183,-0.017548,0.013886,0.045014,0.059968
0.00076295,-0.041962,-0.050202,-0.13321,0.047761,-0.018158,0.054475,0.032197
-0.0206,-0.036164,-0.032502,-0.082856,0.039216,-0.0056458,0.028229,-0.00015259
0.0068666,-0.087434,0.010529,-0.023651,0.010529,0.03006,-0.013581,0.022736
0.042267,-0.090181,-0.011444,-0.017243,0.049897,0.0071717,-0.049592,0.019379
0.079805,-0.16495,0.044099,-0.033722,0.067903,-0.067292,-0.071565,-0.040742
0.041657,-0.18082,-0.088655,-0.050813,0.052033,-0.10269,0.042267,-0.059052
0.0041199,-0.13626,-0.026093,-0.044404,0.042267,0.018158,0.10819,-0.038911
0.00076295,-0.032807,-0.052033,-0.076753,0.031891,0.054475,0.10819,-0.045014
-0.037385,0.019684,-0.11551,-0.12741,0.016632,0.041047,0.10788,-0.033722
-0.089876,0.028229,-0.077363,-0.060273,-0.0050355,0.013275,-0.10605,-0.02121
-0.11612,0.037995,-0.10422,-0.037079,-0.01236,-0.0090028,-0.27512,0.023041
-0.11246,0.026093,-0.1088,-0.12802,-0.015412,0.0013733,0.017243,0.075837
-0.13657,0.056001,-0.1091,-0.15335,-0.027619,-0.00076295,0.08835,0.080415
-0.12833,0.057832,-0.087434,-0.12894,-0.021515,-0.005951,0.028229,0.076143
-0.11063,0.040131,-0.085908,-0.082246,-0.028534,0.019989,0.05417,0.12009
-0.090181,0.056611,-0.075227,-0.084993,-0.030365,0.0050355,0.043183,0.10575
-0.094453,0.041962,-0.061189,-0.084993,-0.018158,0.020905,0.051118,0.060273
-0.071565,-0.024567,0.0071717,-0.085603,-0.0065614,0.038605,0.059052,0.011139
-0.026703,-0.08835,0.002594,-0.066377,-0.01236,0.040436,0.076143,0.013581
0.049897,-0.1445,0.0016785,0.018463,0.0071717,0.04715,0.065461,0.041962
0.070344,-0.18601,0.013581,-0.052644,0.11215,0.037995,0.023651,0.0096132
0.079805,-0.21744,-0.029755,-0.078889,0.14023,0.030671,0.0053407,-0.02884
0.094148,-0.099641,-0.051728,-0.043488,0.064546,0.017243,-0.016327,-0.059663
0.07248,-0.028229,-0.074922,-0.031281,0.078279,-0.00015259,0.0010681,-0.090181
0.0096132,0.018158,-0.078279,-0.020294,-0.010529,0.016938,0.00076295,-0.10788
-0.0041199,0.00015259,-0.078279,-0.11521,-0.19211,0.04654,0.021515,-0.070954
-0.038605,-0.016022,-0.090181,-0.12314,-0.099641,-0.015717,0.042878,-0.015412
-0.061189,-0.056611,-0.08835,-0.071565,0.037385,-0.02182,0.037079,0.028229
-0.079194,-0.042267,-0.061799,-0.094453,0.04593,-0.022126,-0.0028992,-0.0047303
-0.091707,0.035859,-0.098116,-0.05478,0.043488,-0.032197,-0.010224,0.016632
-0.073396,0.15244,-0.12863,-0.15732,0.025788,0.015412,-0.0013733,0.068513
-0.073701,0.087129,-0.079194,-0.14206,-0.0028992,0.014191,-0.28153,0.051423
-0.086824,-0.0065614,-0.040742,-0.11551,-0.031281,0.00015259,-0.16159,0.05539
-0.041352,-0.027619,-0.050813,-0.073396,-0.032807,0.016327,0.13993,0.080415
-0.0044251,-0.081331,-0.018463,-0.037079,-0.015106,0.0086976,0.019379,0.052338
0.032197,-0.14969,0.012055,-0.02945,0.013275,0.0013733,-0.019379,0.026703
0.048981,-0.15549,0.0038148,-0.036164,0.041352,0.016632,0.11704,0.032807
0.039826,-0.13474,-0.027924,-0.06363,0.059968,0.002594,0.013581,-0.00045777
0.031281,-0.10208,0.0041199,0.00076295,0.037995,0.0086976,-0.038911,-0.059358
-0.0022889,-0.041352,-0.065766,-0.065766,0.047456,0.013275,0.045624,-0.04715
-0.016327,-0.038605,-0.06302,-0.090486,0.053559,0.026093,0.046235,-0.011444
-0.023041,-0.054475,-0.043183,-0.072786,0.0099184,0.048371,0.045624,-0.022431
-0.056916,-0.042573,-0.045624,-0.075532,0.0047303,0.032807,0.0383,-0.03769
-0.051118,-0.009308,-0.1088,-0.091402,0.0068666,0.043488,0.090791,-0.034333
-0.020294,-0.034028,-0.11521,-0.093233,-0.0010681,0.032197,0.080415,0.00045777
-0.049592,0.044099,-0.103,-0.12436,-0.002594,-0.0074769,0.0032044,0.014801
-0.055695,0.062715,-0.072786,-0.091707,-0.0062562,-0.067903,-0.086213,0.0053407
-0.04715,0.039216,-0.10666,-0.094453,-0.010529,-0.074006,-0.13809,0.02945
-0.038911,-0.060883,0.0096132,-0.074617,-0.0041199,-0.020294,-0.053254,0.03006
-0.039521,0.016632,-0.060273,-0.066987,-0.0053407,0.0010681,0.070344,0.054475
-0.050507,0.041657,-0.10849,-0.075532,0.0047303,-0.0047303,0.025788,0.061799
-0.064851,-0.052644,-0.040436,-0.077668,0.0019837,0.011139,0.037079,0.049287
-0.0206,-0.13382,0.029755,-0.081025,0.0038148,0.033112,0.057221,0.073396
0.022126,-0.16342,0.016632,-0.044404,-0.0013733,0.068208,0.074617,0.036164
0.013581,-0.10269,-0.0022889,-0.019379,0.016938,0.067292,0.074006,-0.021515
-0.0086976,-0.069429,-0.037079,-0.042267,0.050202,0.041352,0.044404,-0.012665
0.012665,-0.065461,-0.083467,-0.10178,0.075837,0.034943,0.034943,-0.0074769
-0.0032044,-0.047761,-0.093538,-0.085603,0.040436,0.036469,0.022736,0.0099184
-0.048371,-0.037385,-0.088655,-0.076448,0.019379,-0.0032044,-0.023651,-0.024872
-0.10025,0.03769,-0.10544,-0.098726,0.025177,-0.023041,-0.027314,0.0035096
-0.091402,0.0010681,-0.082551,-0.10056,-0.062715,0.005951,0.010834,0.060578
-0.13199,0.077668,-0.088045,-0.093843,-0.12314,0.016938,-0.0028992,0.033722
-0.11795,0.056306,-0.085298,-0.099031,-0.052644,0.0010681,-0.013581,0.027314
-0.069429,0.035248,-0.087434,-0.093538,-0.026398,-0.0035096,0.0086976,0.05417
-0.040742,-0.0099184,-0.082246,-0.091707,0.1857,-0.041657,-0.0041199,0.023346
0.0056458,-0.0019837,-0.073396,-0.088655,0.1796,0.013275,0.011749,-0.002594
0.0019837,-0.045624,-0.020905,-0.069734,-0.15579,0.037079,0.012055,-0.0206
0.012665,-0.046235,-0.0053407,-0.065156,-0.0096132,-0.03006,-0.00076295,-0.00076295
0.0041199,-0.075837,-0.027008,-0.048676,0.046845,-0.0016785,0.064546,0.019379
-0.0028992,-0.11185,-0.0053407,-0.031281,0.033417,0.026703,0.11612,0.0080873
0.030365,-0.11551,-0.016632,-0.056611,0.041047,0.018463,0.018158,0.02121
0.022736,-0.10483,-0.021515,-0.074617,0.017853,0.010529,-0.015106,0.012665
0.019989,-0.097505,-0.023957,-0.05417,-0.021515,0.035554,0.063935,-0.016938
0.015717,-0.0795,-0.055085,-0.076448,-0.056611,0.015412,0.018769,-0.020905
0.02121,-0.064851,-0.061189,-0.022126,0.015106,-0.0050355,-0.031891,-0.035554
-0.034333,-0.011749,-0.041657,-0.026398,0.050507,0.024872,-0.053559,-0.041047
-0.055085,0.027924,-0.11032,-0.11673,0.015717,0.0053407,-0.11795,-0.016327
-0.065766,0.044404,-0.12284,-0.16098,0.0016785,-0.024262,-0.061799,0.023957
-0.066682,0.075227,-0.13931,-0.14969,-0.013275,-0.020294,0.0028992,0.032807
-0.061799,0.067292,-0.11734,-0.08896,-0.033417,0.009308,0.0068666,0.039521
-0.056001,0.0035096,-0.028534,-0.077668,-0.034943,0.050507,0.081636,0.052949
-0.014496,-0.11643,-0.087129,-0.073396,-0.031586,0.040131,0.11704,0.040131
-0.019684,-0.11002,-0.040436,-0.069429,-0.0010681,0.014496,0.05417,0.015717
-0.0083925,0.012665,-0.0383,-0.077058,-0.00045777,0.028229,0.021515,-0.0013733
0.019684,-0.055695,-0.024262,-0.050813,0.0035096,0.0022889,-0.065156,-0.0071717
0.0096132,-0.065461,-0.0086976,-0.057527,0.059968,-0.15,-0.37919,-0.058137
0.0086976,-0.13077,0.024872,-0.035248,0.061189,-0.05417,-0.11398,-0.025177
-0.016938,-0.10269,-0.028229,-0.045319,0.055085,0.085908,0.15396,-0.016938
-0.021515,-0.067597,-0.02182,-0.038911,0.039216,0.12161,0.099947,0.024262
0.014801,-0.10483,-0.0206,-0.043488,0.041657,0.12528,0.13809,0.036164
-0.0041199,-0.031891,-0.066987,-0.06363,0.073396,0.14267,0.074617,-0.0053407
-0.041657,-0.018158,-0.08072,-0.083162,0.059968,0.13962,0.027619,-0.020905
-0.081025,0.019989,-0.10666,-0.1265,0.070344,-0.014801,0.0028992,0.010834
-0.097505,0.036469,-0.10483,-0.090791,-0.10208,-0.5742,-0.020905,0.062104
-0.10208,0.019379,-0.095979,-0.092622,-0.023041,-0.22141,-0.019074,0.09659
-0.10239,0.0083925,-0.10422,-0.087434,0.11582,0.14572,-0.015412,0.10147
-0.066682,0.032197,-0.09659,-0.11124,0.073701,0.030976,0.025788,0.086519
-0.05478,0.082246,-0.096284,-0.11704,-0.10727,0.11154,0.032807,0.034943
-0.049897,0.08072,-0.099641,-0.090486,-0.41825,0.058442,0.031281,0.028229
-0.0086976,0.0065614,-0.044709,-0.082246,0.13474,-0.027924,0.051423,0.0053407
0.02945,-0.062715,-0.020294,-0.052644,0.10269,-0.0080873,0.040436,-0.036774
0.041962,-0.10269,0.0035096,-0.057221,-0.038911,0.16495,0.017853,-0.051728
0.025788,-0.13657,-0.002594,-0.068208,-0.1146,0.2678,-0.0062562,-0.038911
0.013581,-0.14786,0.0096132,-0.052949,-0.0062562,-0.19486,-0.0013733,-0.025177
0.0032044,-0.13138,-0.015412,-0.044404,0.092317,-0.081636,0.056001,-0.053559
-0.0050355,-0.12497,-0.002594,-0.040131,0.10361,0.0062562,0.10819,-0.060883
-0.040742,-0.042573,-0.039216,-0.061799,0.091707,-0.047761,-0.26139,-0.10452
-0.034943,-0.013886,-0.052033,-0.077058,0.029755,0.058137,-0.20462,-0.059052
-0.025483,-0.045319,-0.056306,-0.082551,0.012055,0.059663,0.15732,0.026093
-0.033417,0.002594,-0.088045,-0.11582,0.04715,0.011139,0.072786,0.068513
-0.043183,0.0019837,-0.14481,-0.054475,0.002594,0.036469,0.057832,0.070344
-0.083772,0.011444,-0.12985,-0.053254,0.027924,0.0022889,0.037385,0.064546
-0.081636,0.017243,-0.060578,-0.095369,0.16892,-0.04715,0.0050355,0.1146
-0.087739,-0.0065614,-0.099641,-0.14389,0.031586,-0.015717,-0.01236,0.082856
-0.082246,0.0047303,-0.10086,-0.13443,-0.23941,0.018769,0.02121,0.077363
-0.066987,0.041962,-0.05417,-0.099336,-0.1503,0.010529,0.061494,0.058442
-0.044404,0.022431,-0.061189,-0.10727,0.009308,0.039521,0.070649,0.052338
0.024262,-0.029755,-0.048066,-0.069429,-0.0080873,0.058137,0.081331,0.044099
0.054475,-0.11643,0.024262,-0.010834,0.0080873,0.065766,0.093538,-0.016327
0.061494,-0.13443,0.0071717,-0.048371,0.046235,0.033112,0.018769,-0.049287
0.049897,-0.11185,-0.014801,-0.069123,0.052949,-0.0080873,-0.19089,-0.065156
0.030976,-0.08835,-0.030976,-0.051118,0.052338,-0.019074,-0.10178,-0.10849
0.034943,-0.08957,-0.040436,-0.050202,0.054475,-0.011139,0.04593,-0.11856
0.002594,-0.086519,-0.059358,-0.05478,0.048371,0.0077821,0.01297,-0.076753
-0.0032044,-0.070954,-0.084688,-0.09781,0.043793,-0.025483,-0.090791,-0.048371
-0.045624,0.019684,-0.069123,-0.081331,0.0096132,-0.0062562,-0.10117,-0.022126
-0.073396,0.075532,-0.095369,-0.08835,0.0050355,0.017243,0.061799,-0.00076295
-0.089265,0.017243,-0.083467,-0.081025,-0.0022889,0.01297,0.11429,0.031891
-0.083772,-0.053559,-0.041047,-0.087739,-0.0022889,0.0010681,0.053864,0.059663
-0.08835,0.00015259,-0.098116,-0.10361,-0.0080873,0.029145,0.087739,0.081941
-0.078889,-0.010529,-0.11734,-0.09659,-0.022126,0.053559,0.14481,0.10269
-0.078279,0.03006,-0.11154,-0.076448,-0.042573,0.037995,0.15885,0.10147
-0.044709,0.015717,-0.067292,-0.073091,-0.016632,0.0099184,0.05539,0.12192
-0.02121,-0.014801,-0.034028,-0.095674,0.012055,-0.04715,-0.32853,0.12192
0.00045777,-0.044709,-0.010834,-0.056916,0.014801,-0.039216,-0.25742,0.078279
0.036774,-0.078889,-0.0028992,-0.044099,0.0010681,0.042878,0.094453,0.030365
0.031586,-0.092622,-0.0080873,-0.042267,0.023957,0.016938,0.10697,-0.036774
0.036774,-0.1088,-0.011749,-0.038605,0.0383,-0.028229,-0.059968,-0.071565
0.016632,-0.099336,-0.0206,-0.0096132,0.032197,-0.011139,-0.053254,-0.07187
0.027924,-0.094759,-0.031586,-0.066987,0.05539,0.018463,-0.014191,-0.040742
0.0099184,-0.081636,-0.061799,-0.097505,0.0795,0.026398,0.024262,-0.027008
0.0056458,-0.040131,-0.072175,-0.11765,0.023957,0.0086976,-0.002594,-0.062104
-0.019684,-0.0065614,-0.096284,-0.12161,-0.015106,-0.0086976,0.0019837,-0.087739
-0.04715,0.023346,-0.10025,-0.10636,-0.028229,0.00076295,0.041657,-0.072786
-0.074922,0.026703,-0.089265,-0.073701,-0.041657,0.028229,0.057832,-0.014801
-0.10727,0.044099,-0.07248,-0.048981,-0.022126,0.024262,0.045014,0.018158
-0.084077,0.054475,-0.13107,-0.10788,-0.083467,0.020294,0.047761,0.014191
-0.087434,0.034638,-0.088045,-0.016022,-0.11429,0.018158,0.024872,0.055695
-0.099947,0.014191,-0.073091,-0.11185,-0.017548,0.011139,0.0090028,0.061799
-0.042878,-0.019379,-0.070954,-0.15946,0.031586,0.026093,0.041962,0.085298
-0.031586,-0.05417,-0.023041,-0.11856,0.24918,-0.039521,-0.0010681,-0.009308
-0.019074,-0.051423,-0.0041199,-0.057221,0.19913,0.024262,-0.0022889,-0.021515
0.010529,-0.12192,0.019989,-0.00015259,-0.13962,0.077058,0.023957,0.02182
0.040436,-0.14145,0.02884,-0.019379,-0.0035096,-0.00076295,0.024262,0.02884
0.052949,-0.11612,-0.036774,-0.045014,0.040131,0.018769,0.036164,0.0041199
0.057832,-0.1146,-0.040436,-0.046235,0.019379,0.027314,0.039216,-0.022126
0.085908,-0.19669,0.0047303,-0.042573,-0.011444,0.012055,0.028229,-0.019379
0.033722,-0.17197,-0.099641,-0.064546,-0.052644,0.015412,-0.0074769,-0.032807
-0.0065614,-0.042878,-0.094148,-0.058442,0.023651,0.002594,-0.16587,-0.037079
-0.055085,0.13718,-0.10819,-0.090791,0.052949,-0.058137,-0.11337,0.0050355
-0.099947,0.11032,-0.098421,-0.12589,0.018769,-0.11795,-0.019074,-0.00076295
-0.11948,0.095369,-0.10239,-0.16251,-0.015106,0.0077821,0.065461,0.06363
-0.1619,0.11276,-0.10849,-0.13077,-0.0062562,0.015412,0.086519,0.12589
-0.16678,0.094453,-0.095979,-0.11704,-0.022736,0.028534,0.048066,0.12497
-0.14878,0.055695,-0.084077,-0.096284,-0.045014,0.017243,0.048066,0.12009
-0.11307,-0.024262,-0.039826,-0.083162,-0.034943,0.015106,0.063325,0.14237
-0.065461,-0.08072,-0.057221,-0.051728,-0.028229,0.041047,0.095674,0.12985
-0.026703,-0.090181,-0.046845,-0.065766,0.015412,0.034943,0.093538,0.074006
0.031891,-0.15152,0.018463,-0.047761,0.015106,0.034333,0.013886,0.064546
0.084382,-0.21469,0.047761,-0.012055,0.0096132,0.031281,0.012665,-0.011139
0.08011,-0.1561,-0.037079,-0.040436,0.041657,0.015106,-0.0056458,-0.12528
0.07126,-0.12375,-0.041047,-0.070954,0.042267,0.018158,-0.0068666,-0.14694
0.050507,-0.080415,0.027924,-0.033112,0.030976,0.022431,0.00076295,-0.12955
0.038911,-0.042878,-0.045014,-0.026093,0.048371,0.010224,-0.0083925,-0.11398
0.0050355,-0.0096132,-0.089265,-0.10727,0.059052,-0.0071717,-0.031281,-0.103
-0.01236,-0.00015259,-0.10208,-0.09781,0.02182,-0.0013733,-0.052033,-0.043183
-0.037079,-0.022126,-0.099336,-0.092317,-0.0010681,0.0083925,-0.040742,-0.0035096
-0.066682,0.056306,-0.11978,-0.093843,0.015106,-0.030976,-0.036774,-0.00015259
-0.11551,0.1622,-0.12711,-0.09781,-0.014191,-0.043793,-0.016938,0.037995
-0.14359,0.14054,-0.095369,-0.11582,-0.020294,-0.0086976,0.017243,0.067292
-0.12222,0.058747,-0.08072,-0.12802,-0.030976,0.042267,0.049897,0.09659
-0.077363,-0.0074769,-0.066987,-0.088655,-0.041657,0.041352,0.05417,0.093538
-0.027008,-0.083467,-0.04715,-0.092317,-0.037385,0.024567,0.016022,0.091707
0.014801,-0.15457,-0.046845,-0.099947,-0.019379,0.031586,0.023041,0.070344
0.1091,-0.17441,-0.034028,-0.036164,0.0035096,0.038911,0.031281,0.047761
0.14267,-0.15244,-0.03006,0.0044251,0.0086976,0.035554,0.031891,0.0028992
0.11612,-0.12955,0.014801,0.023957,0.067597,-0.015412,-0.0010681,-0.099641
0.024262,-0.074311,-0.0013733,-0.070954,0.12802,-0.063935,-0.052644,-0.17044
-0.035248,-0.048066,-0.026703,-0.089876,0.074006,-0.024262,-0.029755,-0.13016
-0.018769,-0.081331,-0.0080873,-0.052644,0.0016785,0.0206,-0.013275,-0.081331
-0.059052,-0.048066,-0.052338,-0.085603,-0.037079,0.042573,-0.027008,-0.056001
-0.095979,-0.013886,-0.068208,-0.065461,-0.041657,0.013886,-0.0022889,-0.029755
-0.11337,-0.02945,-0.070954,-0.076753,0.016938,-0.023651,0.00045777,0.042878
-0.12314,0.027314,-0.1088,-0.10239,0.036774,-0.016938,0.0096132,0.092927
-0.11368,0.057527,-0.11154,-0.10727,0.0099184,-0.00076295,0.017548,0.11185
-0.11643,0.10269,-0.13687,-0.11582,-0.014801,0.0086976,0.012665,0.11643
-0.11063,0.14786,-0.1149,-0.121,-0.025483,0.019074,0.033112,0.12284
-0.056001,0.047761,-0.067903,-0.093843,-0.024262,0.030976,0.055085,0.11154
-0.018463,-0.037995,-0.04593,-0.096895,-0.014191,0.012665,0.029755,0.079805
-0.020905,-0.034028,-0.034638,-0.081025,0.0038148,0.0071717,0.017853,0.04715
0.0099184,-0.048371,-0.034943,-0.066987,-0.019379,0.041352,0.051118,0.025483
0.022126,-0.11032,-0.011749,-0.046845,-0.014801,0.031586,0.034943,-0.049592
0.055695,-0.18265,0.0056458,-0.035554,0.0074769,0.0383,0.048371,-0.081636
0.031281,-0.11978,-0.028534,-0.066377,0.04715,0.019074,0.018769,-0.066072
0.017548,-0.096284,-0.020905,-0.058747,0.054475,-0.0032044,-0.031586,-0.019074
-0.0041199,-0.098421,-0.026093,-0.034638,0.040436,-0.017548,-0.037385,0.053559
0.0032044,-0.13138,-0.036774,-0.075532,0.10086,-0.06424,-0.031586,0.041352
-0.0071717,-0.077668,-0.056611,-0.074922,0.12284,-0.042267,-0.074922,0.0099184
0.0050355,-0.036774,-0.085298,-0.071565,0.056916,0.014801,-0.020294,-0.016938
-0.02884,0.011444,-0.092927,-0.083467,0.057221,0.010529,-0.0090028,-0.053254
-0.076143,0.075837,-0.11856,-0.12345,0.013886,-0.009308,-0.053864,-0.054475
-0.077058,0.068513,-0.11124,-0.1149,-0.19089,-0.00015259,-0.0068666,-0.017243
-0.057832,0.061494,-0.10269,-0.058137,-0.19883,-0.014191,0.083772,0.0053407
-0.070954,0.08835,-0.11093,-0.081331,0.062409,-0.11093,0.015717,0.042878
-0.096895,0.088655,-0.10269,-0.11093,0.03006,0.018769,-0.032502,0.060578
-0.079805,0.0062562,-0.062409,-0.11093,-0.15244,0.22263,0.051728,0.10361
-0.039216,-0.067597,-0.023041,-0.091402,-0.062715,0.10117,0.11582,0.10483
0.0047303,-0.11887,0.019379,-0.041657,0.037995,-0.014191,0.10178,0.048066
0.041047,-0.11398,-0.027008,-0.028534,0.056001,-0.023346,0.098726,-0.00045777
0.036774,-0.15,0.017243,-0.064851,0.075837,-0.034333,0.045014,-0.07187
0.013581,-0.13779,-0.016022,-0.055085,0.063935,-0.020294,-0.25681,-0.12711
0.0050355,-0.092927,-0.041657,-0.062715,0.052338,-0.017243,-0.25803,-0.097505
0.034333,-0.08896,-0.041047,-0.066682,0.039216,0.014496,0.12406,-0.019379
0.086824,-0.10971,-0.0077821,-0.047456,0.012665,0.030671,0.092317,-0.002594
0.015412,-0.049592,-0.046845,-0.0795,0.02945,0.032197,0.11429,-0.024262
-0.050507,-0.010224,-0.10086,-0.082246,0.02182,0.065461,0.26017,-0.016938
-0.071565,-0.00076295,-0.10697,-0.10452,0.059052,0.050507,0.15122,0.02121
-0.10056,0.040742,-0.11154,-0.099031,0.11429,-0.011139,-0.23362,0.027619
-0.078889,0.045319,-0.11673,-0.11673,0.087434,-0.060578,-0.14755,0.051118
-0.099031,0.052338,-0.094759,-0.10269,-0.042878,-0.078279,-0.23728,0.035554
-0.13169,0.048371,-0.070649,-0.087129,-0.45762,0.039521,-0.26719,0.017548
-0.11551,0.037995,-0.074922,-0.091402,0.017243,0.069734,0.22599,0.068208
-0.066072,-0.0099184,-0.048066,-0.08957,0.082246,0.002594,0.12894,0.088655
-0.0074769,-0.058137,-0.020294,-0.066377,-0.058442,0.013886,0.04715,0.030976
0.011749,-0.10269,-0.0083925,-0.040742,0.037385,0.022126,0.050507,-0.0010681
0.010529,-0.070954,-0.026398,-0.058747,0.023651,0.024872,0.027924,-0.027619
0.018158,-0.055695,-0.037995,-0.052949,0.044099,0.077668,0.07248,-0.081941
0.0071717,-0.10758,-0.015412,-0.044709,0.065461,0.071565,0.10269,-0.026398
0.019074,-0.10208,-0.021515,-0.010834,0.067597,0.10605,0.061189,0.0065614
0.017853,-0.082246,-0.032502,-0.027619,0.077974,0.20798,0.024872,0.0038148
0.00076295,-0.073396,-0.058747,-0.10941,0.0383,0.31876,-0.01236,0.013275
-0.025177,-0.046845,-0.065156,-0.10758,-0.041047,-0.10575,-0.1265,0.0019837
-0.052949,-0.0074769,-0.082246,-0.10147,-0.014496,-1.0304,-0.079805,0.062104
-0.08072,0.018463,-0.061189,-0.093233,0.052338,-0.055695,0.065461,0.07126
-0.082246,0.013275,-0.069429,-0.053254,-0.028534,0.18235,0.14084,0.075227
-0.098116,0.049897,-0.15305,-0.1149,-0.053254,0.014191,0.051118,0.07126
-0.0972,0.059663,-0.11673,-0.12039,-0.0035096,0.053254,0.032807,0.039521
-0.066072,0.061189,-0.11948,-0.10636,-0.024872,0.064851,0.10056,0.062409
-0.014191,0.040742,-0.1088,-0.069429,0.041962,0.025483,0.10361,0.049897
0.014191,-0.018463,-0.092927,-0.096284,0.28031,-0.0080873,-0.029145,-0.0010681
0.013275,-0.051423,-0.056611,-0.08896,-0.085908,0.086519,-0.27939,0.012665
0.032807,-0.082551,0.018769,-0.070649,-0.23056,0.062104,-0.095369,0.015412
0.084382,-0.17136,0.09781,-0.0071717,-0.033722,0.050507,0.06302,-0.022126
0.090486,-0.17441,0.065766,0.0056458,0.062409,0.038911,0.017853,-0.073701
0.065156,-0.24643,0.061189,-0.045319,0.10361,-0.056306,-0.051728,-0.13169
0.036164,-0.24582,-0.064851,-0.05478,0.078279,-0.1323,-0.075227,-0.11307
0.0047303,-0.10483,-0.079194,-0.062715,0.048066,0.01236,0.0016785,-0.093843
-0.028229,0.036469,-0.10941,-0.075532,0.035859,0.060578,0.051728,-0.034333
-0.037079,0.049592,-0.093233,-0.079194,0.014801,0.038911,0.048981,-0.00045777
-0.052949,0.061189,-0.10727,-0.11856,0.0099184,0.030365,0.030976,0.0068666
-0.065461,0.10758,-0.12619,-0.13474,-0.014801,0.033417,0.029755,0.034333
-0.12009,0.076753,-0.11337,-0.057527,-0.052644,0.028534,0.031281,0.049287
-0.10758,0.040436,-0.092927,-0.083162,-0.015412,0.0086976,0.057221,0.10239
-0.10117,0.03006,-0.13046,-0.15763,0.0206,0.022431,0.054475,0.13718
-0.103,0.0041199,-0.040742,-0.13779,-0.04593,-0.0086976,-0.011139,0.074006
-0.073091,-0.019989,-0.052644,-0.091707,-0.073701,-0.0041199,0.036774,0.081941
-0.084993,-0.0056458,-0.028534,-0.077668,-0.053254,0.031586,0.039521,0.062409
-0.05478,-0.043793,0.018158,-0.024262,-0.015106,0.014191,0.017243,0.044404
-0.020905,-0.066377,-0.044709,-0.02884,0.039521,0.014191,0.018158,0.025788
0.026093,-0.10575,-0.05478,-0.067597,0.045014,0.038911,0.012055,-0.032502
0.04715,-0.13199,0.0035096,-0.047761,0.039826,0.014191,-0.012665,-0.057832
0.047456,-0.12985,-0.0056458,-0.040436,0.026093,0.012055,-0.0041199,-0.083467
0.047456,-0.12161,-0.0016785,-0.056306,0.029145,0.012055,0.0013733,-0.075227
-0.00076295,-0.11185,-0.016022,-0.036164,0.041962,0.0022889,-0.0028992,-0.087129
0.011444,-0.094759,-0.079194,-0.025483,0.041962,0.0041199,0.009308,-0.040742
-0.0090028,0.057527,-0.11948,-0.089876,0.045319,0.013275,0.024872,-0.019074
-0.041352,0.11612,-0.11643,-0.14176,0.040131,0.005951,0.023041,-0.014801
-0.04593,0.048676,-0.11856,-0.12436,-0.0019837,-0.022126,-0.0090028,0.02182
-0.063935,0.042267,-0.10849,-0.062715,-0.035554,-0.024872,0.015106,0.033112
-0.096895,0.048676,-0.066377,-0.08957,-0.022736,-0.015412,0.025483,0.0099184
-0.10056,0.035248,-0.084382,-0.10971,-0.015717,-0.0035096,0.017853,0.044404
-0.093233,-0.038605,-0.036774,-0.070649,-0.026398,0.0019837,0.02121,0.085298
-0.10849,-0.046845,-0.063325,-0.1561,-0.022126,0.00015259,0.019074,0.084077
-0.092012,-0.00015259,-0.045014,-0.103,-0.020294,0.026398,0.024262,0.08072
-0.01297,-0.042573,-0.047761,-0.050813,-0.038605,0.046235,0.037385,0.10056
0.0032044,-0.092317,-0.011749,-0.060578,-0.00076295,0.013886,0.0013733,0.066072
0.0041199,-0.075837,-0.018769,-0.050202,0.02884,0.015106,0.013275,0.052033
0.050507,-0.10697,-0.00076295,-0.040131,0.031891,0.018158,0.018769,0.05417
0.072786,-0.16495,-0.013886,-0.042878,0.048371,0.0071717,-0.0010681,0.0013733
0.069429,-0.18753,-0.023957,-0.033722,0.061494,0.025483,-0.0083925,-0.099031
0.011139,-0.11337,-0.029755,-0.062715,0.060273,0.0041199,-0.010529,-0.13809
-0.019684,-0.071565,-0.044404,-0.066682,0.059968,-0.0096132,-0.022736,-0.11826
-0.0086976,-0.03769,-0.080415,-0.018769,0.062409,-0.00015259,-0.0053407,-0.064546
-0.033112,0.038605,-0.14237,-0.11856,0.076448,-0.030976,-0.012055,-0.061799
-0.066987,0.08835,-0.12497,-0.15488,0.074006,-0.02121,0.013581,-0.031586
-0.10697,0.11429,-0.12314,-0.14542,-0.044709,0.02884,0.051118,0.033417
-0.073091,0.061799,-0.10727,-0.091096,-0.27756,0.05478,0.060578,0.088655
-0.082246,0.035554,-0.0972,-0.08957,-0.215,0.0041199,0.033417,0.08011
-0.092317,-0.0053407,-0.036164,-0.087129,0.015412,-0.026093,-0.053559,0.049897
-0.075837,-0.064546,-0.042573,-0.096895,0.060578,0.010529,0.040436,0.092927
-0.051118,-0.044709,-0.03769,-0.061494,0.052949,0.018463,0.017853,0.097505
0.0041199,-0.068513,-0.02884,-0.024262,0.041962,0.002594,-0.17563,0.063325
0.037079,-0.1088,-0.035554,-0.042267,0.039826,0.015412,-0.041962,0.014801
0.027619,-0.084382,-0.0080873,-0.065461,0.028229,0.036469,0.085298,-0.0074769
0.055695,-0.16648,0.040131,-0.015106,-0.0022889,0.036164,0.017853,-0.031281
0.07187,-0.16464,0.011749,-0.047456,0.049287,-0.011749,0.002594,-0.064851
0.031891,-0.066682,-0.13779,-0.09659,0.075837,-0.025788,-0.0086976,-0.090791
-0.0022889,0.0056458,-0.060578,-0.068818,0.034333,0.010834,-0.0013733,-0.070039
-0.012665,-0.053864,-0.042267,-0.030976,0.037079,0.010834,0.023041,-0.049287
-0.056916,-0.016327,-0.11704,-0.069734,0.059052,-0.0050355,0.018769,-0.035859
-0.077363,0.059663,-0.10208,-0.085603,0.049592,-0.015106,0.0041199,-0.0083925
-0.098421,0.062409,-0.040436,-0.10361,0.010834,-0.024262,0.024262,0.030365
-0.11643,0.0083925,-0.068513,-0.087129,-0.011444,-0.00015259,0.049287,0.057221
-0.084993,-0.031891,-0.12039,-0.13687,-0.040436,0.025483,0.025788,0.070649
-0.090181,0.018158,-0.088655,-0.084382,-0.045624,0.012665,0.016938,0.069734
-0.10239,0.035554,-0.078279,-0.19425,0.0053407,-0.00015259,0.010834,0.043793
-0.10391,0.040131,-0.049897,-0.1268,-0.011139,0.042573,0.02884,0.070039
-0.050507,-0.009308,-0.032502,-0.075837,-0.07187,0.053254,0.040436,0.045624
0.0086976,-0.061494,-0.056306,-0.023651,-0.037385,0.033112,0.044404,0.025483
0.082856,-0.082856,-0.0022889,-0.042573,0.0071717,0.018769,0.045624,0.02182
0.055695,-0.088655,-0.0038148,-0.051423,0.061189,0.023041,0.040131,0.0053407
0.056611,-0.103,-0.0086976,-0.020905,0.056916,0.058747,0.052338,0.018158
0.082856,-0.14298,-0.017853,-0.027314,0.078584,0.011139,0.057221,0.0056458
0.059358,-0.10208,-0.064851,-0.06302,0.074006,-0.023041,0.05417,-0.019684
0.0077821,-0.093538,-0.086213,-0.059358,0.049287,-0.052949,0.041047,-0.059358
-0.035859,-0.070954,-0.080415,-0.094759,0.0383,-0.068208,-0.063325,-0.092927
-0.084077,0.0056458,-0.08011,-0.087129,-0.099947,0.10178,-0.087434,-0.056916
-0.11337,0.026703,-0.094453,-0.12985,-0.098421,0.070344,-0.091402,-0.0022889
-0.083162,0.0038148,-0.078584,-0.12314,0.002594,-0.048066,-0.11582,0.032197
-0.095369,0.037385,-0.10208,-0.085298,-0.011444,0.015106,0.064546,0.0795
-0.071565,0.051118,-0.079194,-0.096895,-0.013275,-0.0086976,0.051118,0.11398
-0.073396,0.042573,-0.084077,-0.096895,-0.010834,-0.025177,0.039521,0.11215
-0.04593,-0.012665,-0.068513,-0.074617,-0.022736,-0.019989,0.0090028,0.057527
-0.024872,-0.048066,-0.023651,-0.067597,0.0068666,-0.014801,0.0053407,0.042878
-0.0074769,-0.058137,-0.019989,-0.044404,0.019684,0.0041199,0.015106,-0.0053407
0.03006,-0.11368,0.0074769,-0.042573,0.012665,0.031586,0.020294,-0.058747
0.0383,-0.11398,-0.015412,-0.038911,0.0077821,0.02121,0.012055,-0.081331
0.039521,-0.096895,-0.016327,-0.048371,-0.040742,0.032197,0.0050355,-0.090791
0.018158,-0.075837,-0.02182,-0.054475,0.015106,0.024872,0.017243,-0.045319
0.0035096,-0.070649,-0.022126,-0.049287,0.049897,-0.0016785,0.012055,-0.0028992
-0.0206,-0.070649,-0.056001,-0.051728,0.16739,-0.037995,0.0077821,0.038911
-0.04654,-0.020905,-0.087129,-0.083162,0.35782,-0.02121,0.02884,0.030365
-0.056916,0.0013733,-0.11673,-0.098726,-0.047456,0.077363,0.051118,0.069734
-0.083772,0.058747,-0.085908,-0.092927,-0.10758,0.030671,0.024262,0.046845
-0.091402,0.10178,-0.13535,-0.11337,-0.033722,0.0044251,-0.022126,0.010834
-0.103,0.039521,-0.1149,-0.11765,-0.057832,0.014191,-0.025177,0.013275
-0.074922,-0.023651,-0.059052,-0.071565,-0.045624,-0.010224,0.063325,0.06363
-0.050507,-0.066987,-0.04715,-0.059663,-0.047761,-0.011749,0.098116,0.06302
-0.052033,-0.034638,-0.048981,-0.08896,-0.0080873,0.0071717,0.13687,0.031281
-0.035248,-0.012665,-0.033722,-0.074617,0.011139,0.018158,0.070649,0.04715
0.0065614,-0.060273,-0.043183,-0.08835,0.010529,-0.00076295,-0.34409,0.034943
0.031586,-0.066682,-0.029755,-0.08072,0.00076295,0.00015259,-0.15396,-0.0090028
0.034028,-0.052949,-0.031586,-0.050202,0.064546,0.018463,0.068208,-0.0010681
0.039216,-0.037995,-0.023651,-0.043488,0.076143,0.011444,-0.002594,-0.023346
0.081636,-0.094148,-0.034943,-0.073396,0.027008,0.020905,0.049897,-0.053559
0.085603,-0.17288,0.018463,-0.049592,-0.15427,0.065766,0.068513,-0.037079
0.050507,-0.16678,0.030976,-0.010224,-0.29191,0.090791,0.05417,-0.043793
-0.015412,-0.084382,-0.061189,-0.045014,0.23911,0.0044251,0.061189,-0.085298
-0.035859,-0.077363,-0.085298,-0.060273,0.098726,-0.037995,0.032807,-0.073701
-0.071565,-0.047761,-0.10025,-0.10697,0.0795,-0.026093,0.019989,-0.016938
-0.1265,0.046235,-0.12039,-0.103,0.060273,0.0099184,0.0090028,0.013886
-0.13962,0.099947,-0.16495,-0.12314,-0.014801,-0.014801,-0.0206,0.017548
-0.11429,0.12192,-0.12711,-0.14359,-0.022126,-0.11063,-0.052644,0.053254
-0.099641,0.082551,-0.07248,-0.11673,-0.039826,-0.013886,-0.01236,0.098116
-0.12345,0.059663,-0.085298,-0.084993,-0.053864,0.051728,0.048066,0.067292
-0.077363,0.019379,-0.033722,-0.079194,-0.025788,0.015412,0.045319,0.049592
-0.0083925,-0.044099,-0.019989,-0.065156,-0.0041199,0.035248,0.027314,0.083772
0.011139,-0.08957,-0.025788,-0.058747,0.0080873,0.036164,0.02945,0.070344
0.026093,-0.094148,-0.033722,-0.070344,0.025177,0.034638,0.03006,0.043183
0.0383,-0.098116,-0.031586,-0.047761,0.03006,0.030365,0.016938,0.0074769
0.053864,-0.10422,-0.012055,-0.03769,0.046845,0.018158,-0.0065614,-0.0056458
0.06302,-0.10971,-0.011749,-0.05417,0.049592,0.0062562,-0.013581,-0.026703
0.027924,-0.11643,-0.0028992,-0.042267,0.042878,0.011444,0.049592,-0.06363
0.025788,-0.10666,-0.027619,-0.044709,0.041962,0.010224,0.011139,-0.075837
-0.0010681,-0.027924,-0.074311,-0.057527,0.060578,-0.027924,-0.078279,-0.083772
-0.041657,0.069123,-0.094759,-0.0972,0.049592,-0.019074,-0.075227,-0.084382
-0.11215,0.049592,-0.092012,-0.072786,0.017548,-0.0086976,-0.061494,-0.063935
-0.15213,0.049592,-0.093538,-0.095674,-0.0010681,-0.014801,-0.027314,-0.011444
-0.11734,0.033112,-0.15457,-0.13687,-0.014496,0.014191,0.086519,0.065156
-0.11612,-0.0016785,-0.10849,-0.18814,-0.03769,0.04654,0.16434,0.10391
-0.10239,-0.013886,-0.13046,-0.13107,-0.074006,0.049287,0.12375,0.1326
-0.073091,-0.031891,-0.10636,-0.018769,-0.093233,0.039216,0.056306,0.16892
-0.0062562,-0.077363,0.017243,-0.044404,-0.0050355,0.02884,0.023957,0.15305
0.04593,-0.15335,0.05417,-0.069734,0.10819,0.014191,0.0065614,0.12161
0.051423,-0.13565,0.013581,-0.036774,0.098726,-0.017548,-0.047456,0.011749
0.05539,-0.02884,-0.016022,-0.03769,0.08072,-0.039216,-0.047456,-0.042878
0.033722,-0.047761,-0.034333,-0.060883,0.098116,-0.024262,-0.024872,-0.064851
0.019074,-0.062104,-0.011749,-0.05539,-0.01236,0.026398,-0.011444,-0.074617
0.010834,-0.074922,-0.027924,-0.05417,-0.19303,0.060273,0.0090028,-0.081941
0.0099184,-0.08835,-0.025483,-0.060578,-0.095979,0.025483,0.029145,-0.069123
0.013275,-0.063935,-0.077058,-0.066987,0.074311,0.0071717,0.015412,-0.072175
-0.015106,-0.014801,-0.10269,-0.026703,0.067597,0.011444,0.013581,-0.051423
-0.043488,0.011139,-0.095369,-0.11032,0.066377,0.023346,0.01297,-0.039521
-0.098116,0.027924,-0.098116,-0.13169,0.036774,0.011444,0.015717,-0.036774
-0.11734,0.059968,-0.088045,-0.13443,-0.029755,-0.00076295,0.029755,0.033722
-0.11032,0.086519,-0.11917,-0.13199,-0.039521,0.0010681,0.048066,0.11154
-0.087129,0.061189,-0.096895,-0.10666,-0.045014,0.014191,0.051728,0.14023
-0.091402,0.018463,-0.095979,-0.085908,-0.048676,0.0065614,-0.069429,0.11673
-0.08072,-0.018158,-0.061799,-0.066987,-0.038605,0.014191,-0.090181,0.067597
-0.016632,-0.061799,-0.010529,-0.059663,-0.019379,0.023957,0.031586,0.057527
0.017548,-0.103,-0.025788,-0.044404,0.011749,-0.0019837,0.0019837,0.03006
0.045624,-0.12894,-0.036774,-0.075532,0.020905,-0.015412,-0.011139,0.0080873
0.061799,-0.1384,0.02182,0.050202,0.048066,-0.019074,0.041962,0.014801
0.048371,-0.084382,-0.033722,-0.086824,0.11826,-0.023346,0.073396,-0.034638
0.041657,-0.08072,-0.016022,-0.083162,0.12589,0.04654,0.077668,-0.057221
0.03769,-0.11154,-0.0096132,-0.021515,0.037995,0.057221,0.036164,-0.057832
0.018158,-0.14786,-0.026093,-0.031586,0.048066,-0.025483,0.049287,-0.069123
-0.014191,-0.08072,-0.084077,-0.13779,0.066072,-0.0068666,0.017853,-0.090791
-0.041352,0.01236,-0.082856,-0.12039,0.0016785,0.08835,-0.015106,-0.056611
-0.087129,0.047456,-0.082551,-0.06363,-0.12009,0.24979,-0.045624,-0.04715
-0.099641,0.077668,-0.098726,-0.078889,-0.04715,0.0065614,-0.14359,-0.0035096
-0.077668,0.092622,-0.11734,-0.12711,0.14054,-0.43168,-0.061494,0.045624
-0.056916,0.043793,-0.11276,-0.10971,0.032197,-0.02884,0.094759,0.041352
-0.070649,0.019379,-0.099641,-0.083467,-0.066987,0.069123,0.09659,0.059968
-0.10056,0.02121,-0.10361,-0.11643,-0.090791,0.053559,0.086519,0.089876
-0.070954,0.025177,-0.095064,-0.1149,-0.086824,0.034333,0.040436,0.1207
-0.023346,-0.034943,-0.020905,-0.066987,-0.028534,-0.033417,-0.23575,0.11307
-0.012665,-0.066377,-0.00076295,-0.035554,0.0065614,-0.00076295,-0.10178,0.077974
-0.010834,-0.078889,-0.018158,-0.070649,0.029145,0.023957,0.17563,0.055085
0.005951,-0.090791,-0.029145,-0.059663,0.023957,0.051728,0.096895,0.048981
0.0099184,-0.14847,0.044099,-0.013581,0.025177,0.074311,0.10178,0.027619
0.043183,-0.17227,0.014801,-0.0096132,0.056306,0.042573,0.085908,-0.030976
0.04593,-0.11154,-0.092317,-0.045014,0.069123,0.0041199,0.025788,-0.092317
-0.0047303,-0.090181,-0.032197,-0.023041,0.073091,-0.034333,-0.048981,-0.078279
-0.018769,-0.055695,-0.059968,-0.060273,0.09781,-0.026398,-0.077363,-0.038605
-0.036469,-0.020294,-0.092012,-0.08835,0.067597,-0.0013733,0.015106,-0.053864
-0.077668,0.025788,-0.10697,-0.10727,-0.0035096,-0.01297,-0.099947,-0.04654
-0.083772,0.052338,-0.10819,-0.10758,-0.021515,0.0022889,-0.023651,-0.048676
-0.089876,0.060273,-0.10971,-0.12345,-0.027314,0.010224,0.039216,0.010529
-0.085603,0.063325,-0.10117,-0.12985,-0.050813,0.013275,0.019684,0.05539
-0.08011,0.035554,-0.084993,-0.098421,-0.066987,0.036469,0.060273,0.046845
-0.065461,0.05417,-0.08011,-0.078584,-0.043183,0.034028,0.050507,0.073701
-0.036774,-0.0016785,-0.042267,-0.089265,-0.031586,0.023041,0.025788,0.072786
-0.011444,-0.084382,-0.0074769,-0.085298,-0.0041199,0.020294,0.039521,0.037079
0.029755,-0.098421,-0.016327,-0.053254,-0.0096132,0.037079,0.023651,-0.0013733
0.039216,-0.11337,-0.021515,-0.042267,0.016938,0.040436,0.025483,-0.010224
0.051728,-0.10575,-0.01297,-0.044099,0.059052,0.0053407,0.0071717,-0.019379
0.03006,-0.10239,-0.010834,-0.042267,0.054475,-0.011749,-0.009308,-0.027008
0.013581,-0.097505,-0.032807,-0.059358,0.03769,0.0019837,-0.009308,-0.024262
0.0016785,-0.10941,-0.026093,-0.074617,0.02182,0.027008,0.027924,-0.0050355
-0.016938,-0.075532,-0.07126,-0.083772,0.02121,0.031281,0.053254,0.0019837
-0.048371,-0.034638,-0.038911,-0.079805,0.036774,0.020294,0.023346,-0.041047
-0.058747,-0.02945,-0.078279,-0.072175,0.022736,0.0077821,-0.0028992,-0.029755
-0.07126,0.034333,-0.13046,-0.085298,0.0038148,0.01236,0.0013733,0.01297
-0.087739,0.0795,-0.12467,-0.14725,-0.00015259,-0.009308,-0.025788,0.055695
-0.065156,0.043793,-0.11124,-0.12314,-0.035554,-0.0080873,-0.017548,0.10483
-0.049897,-0.030365,-0.061189,-0.070954,-0.045014,0.0206,0.041352,0.10056
-0.054475,0.016632,-0.15061,-0.087739,-0.016632,0.010529,0.046235,0.064546
-0.041657,-0.024872,-0.025788,-0.070649,-0.011444,0.010834,0.042267,0.050202
-0.018769,-0.050202,0.033417,-0.087434,-0.0071717,0.0050355,0.031891,0.032807
0.032807,-0.032197,-0.017853,0.0056458,-0.00045777,0.0090028,0.017243,0.002594
0.055085,-0.034638,-0.053864,-0.068208,0.0096132,0.018463,-0.017243,0.0032044
0.030976,-0.023346,-0.036164,-0.11765,0.046235,0.0028992,-0.087129,-0.032807
0.013275,-0.099947,-0.048981,-0.023651,0.043793,-0.053864,-0.08072,-0.04654
-0.015106,-0.090181,-0.059052,-0.038911,0.039826,-0.036164,-0.0206,-0.038911
-0.028534,-0.11582,0.039521,-0.039521,0.11765,0.038605,0.019684,-0.075227
-0.0206,-0.103,-0.02182,-0.047761,0.10544,-0.0038148,0.05539,-0.044709
-0.03769,-0.074311,-0.062715,-0.078279,0.069123,-0.059968,0.018769,-0.033112
-0.052033,-0.028534,-0.087129,-0.075532,0.074311,-0.085603,-0.009308,-0.034333
-0.056001,0.017243,-0.078889,-0.1088,-0.028229,0.058137,0.0053407,-0.0071717
-0.067903,-0.0047303,-0.090181,-0.11582,-0.19577,0.19852,0.039826,0.035554
-0.10544,0.053864,-0.12741,-0.12558,-0.16678,0.08835,0.04654,0.056306
-0.10056,0.09781,-0.14267,-0.11795,-0.090791,0.0206,0.065461,0.074006
-0.087739,0.050507,-0.089265,-0.092317,-0.059968,0.035248,0.10849,0.074006
-0.069734,0.02945,-0.070344,-0.085908,-0.0047303,0.010834,0.072786,0.067597
-0.044709,0.027924,-0.063935,-0.089265,0.035859,-0.005951,0.090486,0.071565
-0.015412,-0.052033,-0.030976,-0.060578,0.30869,-0.061494,0.019684,0.031891
0.027314,-0.12985,0.063935,-0.05417,0.11246,0.011139,-0.34806,-0.023346
0.040436,-0.18845,-0.019684,-0.073091,-0.14054,0.032197,-0.16678,-0.013581
0.053254,-0.15579,-0.041962,-0.018463,0.0053407,0.0041199,0.10758,0.0206
0.034028,-0.032502,-0.039216,-0.033417,0.032197,0.0083925,0.036164,0.012665
-0.0086976,-0.040436,-0.037079,-0.046845,0.053864,0.0010681,0.044404,0.0086976
-0.011444,-0.059968,-0.033722,-0.077058,0.028229,0.016022,0.075837,0.011444
-0.039521,-0.05478,-0.02884,-0.097505,0.0065614,0.019989,0.062104,0.012665
-0.026703,-0.027314,-0.044099,-0.035248,-0.010834,0.054475,0.082856,0.070344
-0.045319,0.002594,-0.075227,-0.08957,-0.0086976,0.034943,0.092622,0.057832
-0.059358,0.024262,-0.11124,-0.1146,0.012055,-0.029755,0.048371,0.0065614
-0.063325,-0.0068666,-0.13169,-0.12039,-0.00015259,-0.1033,-0.11551,-0.010834
-0.065461,-0.040131,-0.10056,-0.09659,-0.016938,-0.099641,-0.20615,-0.012055
-0.047761,0.0010681,-0.090486,-0.069734,-0.026398,-0.014801,0.052033,0.016022
-0.042878,0.04593,-0.1146,-0.075532,0.0032044,0.15335,0.17838,0.037385
-0.039521,0.071565,-0.095979,-0.060883,0.0065614,0.23514,0.088655,0.040436
-0.027008,0.019074,-0.0038148,-0.069429,-0.019684,-0.0016785,0.014191,0.02182
-0.0071717,0.0013733,-0.025483,-0.11887,-0.032807,-0.01297,0.033417,0.0056458
0.012055,-0.12222,0.0083925,-0.056916,0.02884,-0.16495,-0.1323,-0.052949
0.047456,-0.27939,0.0035096,-0.031281,0.048981,-0.023041,-0.019684,-0.070649
0.052949,-0.23239,-0.034943,-0.048676,0.041047,0.02884,-0.20493,-0.061494
0.079194,-0.15091,-0.024567,-0.065766,0.048981,-0.035554,-0.18387,-0.073091
0.038911,-0.062104,0.0047303,-0.0053407,0.0383,-0.005951,0.063325,-0.049287
-0.0096132,-0.0038148,-0.026093,-0.062409,0.061494,-0.0056458,0.067597,-0.048676
-0.025788,-0.002594,-0.085908,-0.072175,0.06424,-0.005951,0.027314,-0.030976
-0.074617,0.048066,-0.086213,-0.096284,0.032807,0.0080873,0.039216,-0.015106
-0.11398,0.075837,-0.10605,-0.12955,0.019074,0.011139,0.042878,0.011139
-0.12161,0.040742,-0.098726,-0.10727,-0.027314,0.048371,0.067903,0.056306
-0.10605,0.056001,-0.11246,-0.11276,-0.035248,0.059052,0.090486,0.11551
-0.095369,0.057527,-0.082856,-0.12314,-0.03769,0.03006,0.090791,0.11002
-0.070649,-0.054475,-0.032197,-0.073396,-0.051423,0.022736,0.06363,0.090791
-0.07126,0.0083925,-0.1146,-0.091096,-0.038605,0.021515,0.036164,0.08011
-0.069734,0.032197,-0.0972,-0.10788,-0.024262,0.0068666,-0.015106,0.053864
-0.030671,-0.0013733,-0.068208,-0.079805,-0.031281,-0.08957,-0.026703,0.05539
-0.01236,-0.056001,-0.045624,-0.025483,-0.011139,-0.045014,-0.042573,0.0096132
0.040131,-0.11612,0.058137,-0.011139,0.027619,0.04715,0.012055,-0.0086976
0.056306,-0.12741,0.00045777,-0.044709,0.070039,0.012665,0.0074769,-0.02121
0.030976,-0.077668,-0.040131,-0.085908,0.067903,0.01236,0.011139,-0.067903
0.0074769,-0.09659,-0.02884,-0.078889,0.034333,0.020905,-0.0013733,-0.11704
-0.010529,-0.096284,-0.041962,-0.058137,0.0071717,0.025483,0.0032044,-0.11551
-0.021515,-0.083772,-0.048981,-0.060273,0.0086976,0.026093,0.015106,-0.090791
-0.0056458,-0.087739,-0.029145,-0.018158,0.027924,0.011139,-0.0028992,-0.049592
-0.026703,-0.03769,-0.060883,0.018463,0.043183,0.012055,-0.020905,-0.044404
-0.030976,0.023346,-0.11032,-0.10788,0.057832,0.035248,0.023957,0.039826
-0.065766,0.033722,-0.085298,-0.16922,0.034333,0.020905,0.062104,0.10636
-0.066987,0.033722,-0.085908,-0.13687,-0.0065614,-0.011139,0.057527,0.12314
-0.061494,0.084688,-0.12528,-0.14908,0.011749,0.02121,0.033417,0.15122
-0.053559,0.07126,-0.10239,-0.12345,0.015412,0.00015259,-0.044404,0.10971
-0.04715,0.03006,-0.12375,-0.095369,-0.009308,-0.0041199,-0.066682,0.084382
-0.030671,-0.018769,-0.027924,-0.039521,-0.00015259,0.0053407,-0.042878,0.070344
-0.0032044,-0.11612,-0.0096132,-0.020905,-0.069123,0.034028,0.042878,0.044099
0.016022,-0.087739,-0.053864,-0.027008,-0.19669,0.03006,0.019074,0.015106
0.033417,-0.12833,0.044404,-0.039521,-0.099947,-0.0077821,0.05539,-0.0010681
0.0068666,-0.075532,-0.043183,-0.093233,0.093538,-0.0068666,0.056001,-0.051118
0.005951,-0.12222,0.012055,-0.066987,0.069429,0.027314,0.053559,-0.024872
-0.0074769,-0.11093,-0.0062562,-0.04715,0.041352,0.0050355,0.0050355,-0.032807
-0.022736,-0.078279,-0.034028,-0.061189,0.076448,0.00015259,-0.062104,-0.052949
-0.021515,-0.084993,-0.047761,-0.07248,0.056306,0.028534,0.0019837,-0.049592
-0.047456,-0.016022,-0.081941,-0.077363,0.053559,-0.0047303,-0.015106,-0.069734
-0.070954,0.011749,-0.14389,-0.073701,0.049897,-0.033112,-0.055695,-0.029145
-0.073701,0.031281,-0.103,-0.048371,0.035248,-0.027314,-0.023346,0.036164
-0.069123,0.0022889,-0.041962,-0.10086,0.016022,-0.0028992,0.0032044,0.044404
-0.085908,0.048066,-0.11765,-0.11734,0.0041199,0.0044251,0.018158,0.037079
-0.10025,0.087739,-0.10941,-0.12314,-0.020905,0.026703,0.053254,0.05417
-0.103,0.05539,-0.083467,-0.11887,-0.048371,0.02945,0.049897,0.043183
-0.087434,0.040131,-0.0795,-0.1033,-0.052949,0.032807,0.040436,0.066072
-0.021515,-0.0065614,-0.049897,-0.082856,-0.029145,0.009308,0.02182,0.098421
0.033417,-0.054475,-0.038911,-0.060273,-0.012665,0.013886,0.012055,0.067292
0.078279,-0.091402,-0.013581,-0.063325,0.0016785,0.027924,0.063325,0.0035096
0.047761,-0.11734,0.0083925,-0.038911,0.015717,0.022431,0.081331,-0.00076295
0.033417,-0.095369,-0.01297,-0.05478,0.026703,0.038605,0.10269,-0.0035096
0.02121,-0.1442,0.01236,-0.055695,0.037079,0.033417,0.084077,-0.015106
0.043488,-0.17777,-0.011749,-0.044099,0.033112,0.019074,0.025483,-0.029755
-0.0022889,-0.10666,-0.040742,-0.030671,0.052949,-0.035554,-0.13413,-0.097505
-0.02945,-0.034638,-0.081331,-0.073091,0.050202,-0.040436,-0.34592,-0.12589
-0.030976,-0.040436,-0.055085,-0.037385,0.017548,0.034333,-0.079805,-0.091707
-0.002594,-0.10697,-0.016632,-0.021515,0.02945,0.0071717,0.050507,-0.065156
-0.028534,-0.048371,-0.16159,-0.13169,0.043488,-0.016938,0.026093,-0.0383
-0.018463,0.017853,-0.12558,-0.13382,0.0050355,-0.0041199,0.02884,0.015412
-0.050813,0.10239,-0.121,-0.11673,-0.037079,0.002594,0.034028,0.055695
-0.066987,0.11643,-0.11612,-0.11917,-0.027008,0.00015259,-0.033722,0.091402
-0.072175,0.081941,-0.089265,-0.10788,-0.032807,0.0050355,-0.022431,0.069429
-0.086213,0.047456,-0.064851,-0.08835,-0.014801,0.010224,0.07187,0.062409
-0.087739,0.010529,-0.05417,-0.085603,-0.00076295,0.012055,0.027924,0.057221
-0.073091,-0.050507,-0.060578,-0.072175,-0.011444,0.013275,-0.01236,0.040131
-0.038605,-0.08896,-0.022431,-0.05478,0.0383,0.016327,0.048371,0.036164
0.0032044,-0.098116,0.042878,-0.049592,0.14786,0.0077821,0.057221,0.058137
0.041962,-0.16434,0.0206,-0.0053407,0.15671,0.0099184,0.052949,0.051118
0.058442,-0.11032,-0.002594,-0.010529,0.091707,0.012055,0.08835,0.031281
0.015717,-0.06363,-0.005951,-0.041047,-0.32731,0.045014,0.052338,0.0050355
-0.027314,-0.082856,-0.048066,-0.092927,-0.08896,0.062104,0.025177,-0.022431
-0.043488,-0.055695,-0.088655,-0.093538,0.14481,0.069123,0.027008,-0.039521
-0.024262,-0.035859,-0.10452,-0.10361,-0.24826,0.25132,-0.092927,-0.027008
-0.061494,0.019989,-0.11246,-0.10269,-0.015412,-0.040436,-0.14481,-0.018158
-0.1033,0.069123,-0.11276,-0.099031,0.1619,-0.36759,0.043183,0.023346
-0.074006,0.043793,-0.10544,-0.089876,0.087434,0.013275,0.10788,0.10025
-0.067292,0.035554,-0.086213,-0.083772,0.061189,-0.0074769,0.099031,0.11887
-0.048371,0.020294,-0.060883,-0.074617,0.022126,-0.056001,0.093538,0.084077
-0.035859,0.019684,-0.065156,-0.077058,0.026703,-0.07126,-0.014496,0.0383
0.0068666,-0.05478,-0.042267,-0.073396,-0.061494,0.054475,-0.04654,-0.0047303
-0.018158,-0.041657,-0.066682,-0.093538,-0.15213,0.18906,-0.014191,-0.015412
-0.015717,-0.023957,-0.035859,-0.064851,-0.030365,0.064546,-0.0080873,-0.033417
0.0099184,-0.041962,-0.022736,-0.066987,0.07187,-0.032807,-0.023346,-0.027008
0.025788,-0.098726,-0.026093,-0.08896,0.074006,0.0083925,-0.014801,-0.06363
0.019684,-0.11032,-0.028229,-0.082246,0.043488,0.041047,0.0099184,-0.10086
0.02945,-0.14633,-0.015412,-0.033417,0.022736,0.023041,0.020905,-0.091707
0.056306,-0.21744,0.061189,0.0047303,0.0096132,0.0086976,-0.0062562,-0.045624
0.040436,-0.1738,-0.036469,-0.057221,-0.032502,0.015106,-0.044709,-0.055085
-0.019684,-0.059358,-0.091402,-0.11276,-0.0032044,-0.021515,-0.071565,-0.094148
-0.052644,0.0206,-0.11978,-0.08835,0.0086976,-0.13626,-0.048371,-0.061494
-0.085908,0.041352,-0.083467,-0.045319,0.080415,-0.082551,0.033112,-0.02121
-0.12406,0.062715,-0.12314,-0.13291,0.35203,-0.00015259,0.13596,0.04715
-0.11185,0.073701,-0.121,-0.16464,-0.013581,0.11521,0.2031,0.13382
-0.069734,0.0080873,-0.069123,-0.091707,-0.18082,0.064546,0.049592,0.17472
-0.084382,0.02182,-0.070344,-0.08835,-0.057527,-0.011139,-0.36179,0.14267
-0.068818,0.025177,-0.098726,-0.094453,-0.052949,0.012665,-0.053864,0.12528
-0.04715,0.043793,-0.063325,-0.073091,-0.039216,0.045624,0.12619,0.11276
-0.037385,0.014191,-0.042573,0.059968,-0.018158,0.051423,0.055695,0.041657
0.019989,-0.0096132,0.011749,-0.087129,-0.0022889,0.039521,0.077668,0.032197
0.02884,-0.050507,-0.012665,-0.12955,0.043183,-0.0047303,0.018769,-0.036469
0.022126,-0.13291,0.0032044,-0.048371,0.011444,0.010224,0.015717,-0.12741
0.014801,-0.16403,-0.0099184,-0.045624,-0.0010681,0.027924,0.04593,-0.097505
0.0080873,-0.14664,-0.045014,-0.051423,0.030365,0.016632,0.019379,-0.053864
0.0080873,-0.16678,-0.038605,-0.017548,0.02945,0.030976,0.0080873,-0.061494
-0.0065614,-0.14694,-0.052338,-0.041352,0.0383,0.0041199,0.02884,-0.066987
-0.037079,-0.03769,-0.052338,-0.087739,0.08011,-0.034333,-0.010529,-0.057527
-0.057832,0.061189,-0.13657,-0.095674,0.049897,-0.0099184,-0.0028992,-0.0083925
-0.081941,0.1033,-0.099031,-0.091707,0.0032044,0.0028992,0.014191,0.018769
-0.077058,0.076753,-0.099336,-0.11337,-0.017548,-0.0016785,0.030976,0.044404
-0.060578,0.033722,-0.078889,-0.1033,-0.043183,0.0010681,0.031586,0.037995
-0.062715,0.012665,-0.090791,-0.098726,-0.043488,0.00015259,-0.21836,0.054475
-0.05478,0.028229,-0.10544,-0.11185,-0.027314,-0.02121,-0.25925,0.07187
-0.05478,0.012665,-0.058747,-0.091707,-0.041047,-0.00076295,0.024262,0.08957
-0.015106,-0.035554,-0.032502,-0.054475,-0.032502,0.022431,0.10056,0.1207
0.0010681,-0.060273,-0.021515,-0.060578,0.0010681,0.018158,0.069734,0.10849
0.020905,-0.077668,-0.0028992,-0.066377,0.027924,0.0013733,0.057221,0.079805
0.041047,-0.10575,-0.011444,-0.090486,0.07126,-0.0016785,0.079194,0.041047
0.0080873,-0.079805,-0.041657,-0.068818,0.08835,0.016022,0.069429,-0.027008
-0.015717,-0.066377,-0.024567,-0.032197,0.057832,0.023957,0.065461,-0.049592
-0.0062562,-0.12406,-0.028534,-0.026093,0.082246,0.029145,0.067292,-0.030365
-0.027619,-0.099641,-0.026703,-0.074311,-0.010224,0.050813,0.011444,-0.04715
-0.054475,-0.0206,-0.082246,-0.087739,-0.2092,0.063325,0.01297,-0.060578
-0.033417,0.009308,-0.090486,-0.094453,-0.10941,0.026398,0.034028,-0.033417
-0.05478,0.043793,-0.10025,-0.083162,0.069123,0.005951,0.0032044,-0.015106
-0.068208,0.028534,-0.08011,-0.08072,0.048371,-0.015412,-0.012665,-0.018463
-0.081025,0.018158,-0.093233,-0.10727,0.027008,-0.022126,-0.038605,-0.033417
-0.053559,-0.061494,-0.065156,-0.071565,0.0041199,-0.01297,0.010529,0.027314
0.0019837,-0.099947,-0.0795,-0.085298,0.0050355,-0.0041199,0.070344,0.08072
-0.018769,0.032197,-0.0972,-0.086519,0.027924,-0.018158,0.035554,0.084688
-0.031281,0.022431,-0.032502,-0.075837,0.01297,-0.019684,-0.02884,0.058442
-0.0206,-0.025788,-0.045624,-0.073091,-0.002594,-0.032807,-0.059052,0.035859
0.009308,-0.052033,-0.036774,-0.061189,0.0074769,-0.015717,-0.091402,0.0077821
0.03769,-0.10941,-0.01297,-0.031586,0.0010681,0.044709,0.025177,-0.025483
0.044099,-0.13535,0.0062562,0.0010681,0.014191,0.053559,0.048981,-0.055085
0.0096132,-0.091707,-0.048676,-0.13169,0.059052,0.019379,-0.02945,-0.041047
-0.00045777,-0.052033,-0.03006,-0.095674,0.06363,0.0083925,-0.033112,0.0071717
0.011139,-0.060273,-0.040436,-0.036164,0.035248,0.034638,0.034028,-0.010529
-0.014191,-0.050813,-0.048676,-0.056916,0.043183,0.012055,0.069734,-0.060578
-0.052033,-0.010834,-0.057832,-0.07248,0.025788,-0.022736,0.0010681,-0.061799
-0.069123,0.0077821,-0.054475,-0.032807,0.0013733,-0.02182,-0.0065614,-0.00076295
-0.04593,-0.090181,-0.044709,-0.093538,0.045624,0.0010681,0.022736,0.034333
-0.07126,-0.084382,-0.12619,-0.11978,0.023041,-0.017548,0.029145,0.04715
-0.099641,0.024567,-0.12955,-0.14481,-0.053559,-0.02182,0.018158,0.033112
-0.11368,0.075532,-0.12985,-0.16739,-0.08011,0.028534,0.041657,0.056306
-0.093233,0.084077,-0.11856,-0.11398,-0.087434,0.053559,0.062409,0.059968
-0.051423,0.041352,-0.073396,-0.032197,-0.029145,0.049287,0.034333,0.055085
-0.016327,0.025788,-0.047761,-0.089876,0.025177,-0.0090028,-0.057221,-0.0028992
0.024872,-0.043793,-0.005951,-0.078279,0.0028992,-0.018769,-0.11002,-0.030976
0.035554,-0.093843,0.027314,-0.049592,-0.0074769,0.017853,-0.0050355,0.016938
0.045319,-0.13077,0.0056458,0.017853,0.035248,-0.00076295,0.026093,0.023651
0.039521,-0.057832,-0.054475,-0.012665,0.041657,0.0041199,0.0077821,0.00076295
0.017548,0.0035096,-0.04715,-0.072786,0.059663,0.010529,0.010834,-0.034943
-0.023041,-0.083772,-0.018769,-0.071565,0.048981,0.0044251,0.0019837,-0.046845
0.014191,-0.10849,-0.0099184,-0.085908,0.023041,0.018158,0.02121,-0.037385
0.013581,-0.069429,-0.077363,-0.074311,-0.0050355,0.031281,0.010834,-0.045319
-0.037385,-0.060273,-0.051118,-0.066377,0.013581,-0.0032044,-0.0028992,-0.049592
-0.081636,-0.037995,-0.084077,-0.067597,0.042267,-0.027008,-0.020294,-0.029755
-0.095979,-0.030365,-0.092317,-0.09781,0.0206,-0.0096132,-0.00076295,0.02884
-0.12558,-0.058137,-0.11276,-0.1384,-0.0041199,0.04654,0.0795,0.085298
-0.1387,0.0041199,-0.1445,-0.13565,-0.032502,0.071565,0.16098,0.14847
-0.12924,0.086213,-0.13321,-0.1088,-0.064546,0.073091,0.1677,0.17075
-0.10697,0.080415,-0.042878,-0.067597,-0.053864,0.036469,0.098116,0.14694
-0.072175,0.025788,-0.018463,-0.050813,0.0065614,-0.050202,-0.10056,0.0795
-0.069429,0.015717,-0.068818,-0.094453,0.051728,-0.16403,-0.19059,0.0206
-0.016632,-0.058747,0.019989,-0.048371,0.0056458,-0.041962,0.06363,0.018158
0.055695,-0.10819,-0.012665,-0.029145,-0.0035096,0.092622,0.08072,0.011444
0.068513,-0.086824,-0.074922,-0.069123,0.034028,0.02884,-0.12772,-0.030671
0.091707,-0.12039,-0.027924,-0.044404,0.031281,0.020905,0.065766,-0.070649
0.095674,-0.098726,-0.024262,-0.056306,-0.020294,-0.0062562,-0.081636,-0.095674
0.04654,-0.087434,0.009308,-0.052644,-0.0071717,-0.021515,-0.30716,-0.12528
0.023651,-0.090486,-0.023651,-0.060883,0.071565,0.030976,-0.10636,-0.10239
0.010529,-0.066987,-0.06302,-0.08957,0.066682,0.056916,0.20981,-0.081941
-0.0090028,-0.055695,-0.11704,-0.078889,0.030365,0.027008,0.14298,-0.060578
-0.010224,-0.046845,-0.058442,-0.053254,0.016938,0.013275,0.042878,-0.014801
-0.036469,-0.027619,-0.13565,-0.085603,0.023041,-0.034028,-0.19059,-0.020294
-0.043488,0.002594,-0.06424,-0.11521,0.0032044,-0.049592,-0.081941,-0.00076295
-0.10788,0.062715,-0.11032,-0.10666,-0.030365,-0.009308,0.06363,0.013581
-0.11551,0.12222,-0.1088,-0.11734,-0.040436,0.030671,0.051118,0.05539
-0.10056,0.066377,-0.088045,-0.090791,-0.043183,0.025177,0.093538,0.13443
-0.10117,0.0038148,-0.041047,-0.10575,-0.016938,0.012055,0.092622,0.12284
-0.045014,-0.027619,-0.0383,-0.091707,-0.025177,0.013886,0.12253,0.11612
-0.032807,-0.037995,-0.015717,-0.066377,-0.02121,0.022431,0.13474,0.12802
-0.025483,-0.084382,-0.016632,-0.061189,0.025177,0.023957,0.053559,0.08957
0.0050355,-0.11002,-0.030976,-0.046845,0.044099,0.024567,-0.00015259,0.055695
0.020905,-0.084993,-0.010224,-0.037385,0.055695,0.01297,-0.086213,-0.0028992
0.041962,-0.13474,-0.0074769,-0.016022,0.063325,0.015412,-0.074006,-0.061799
0.018158,-0.10452,-0.037995,-0.046845,0.050507,0.023957,-0.0071717,-0.088045
0.013886,-0.090486,-0.05478,-0.059052,-0.0041199,0.038911,0.023041,-0.1033
0.0068666,-0.061494,-0.073091,-0.098726,-0.0090028,0.00045777,0.034943,-0.13169
-0.014496,-0.016022,-0.087129,-0.073396,0.041352,-0.027924,0.023041,-0.11643
-0.044709,0.018158,-0.090181,-0.099336,0.022126,0.012055,0.019379,-0.069734
-0.081025,0.049592,-0.098421,-0.11582,0.03769,-0.019379,-0.0068666,-0.018158
-0.084077,0.056001,-0.1088,-0.10513,0.0080873,-0.044404,-0.0056458,0.037079
-0.093843,0.034333,-0.10147,-0.11887,-0.0062562,-0.070344,0.023651,0.10239
-0.08896,0.002594,-0.086213,-0.10361,-0.00076295,-0.066377,0.016632,0.13809
-0.088045,-0.01297,-0.059358,-0.094453,-0.11124,0.10513,0.0096132,0.10178
-0.055695,-0.039521,-0.055695,-0.065156,-0.16281,0.19303,0.061494,0.10391
-0.027619,-0.015412,-0.047761,-0.071565,-0.023651,0.033112,0.033722,0.064546
-0.010834,-0.046845,-0.011749,-0.062409,0.055085,-0.017243,-0.0041199,0.023651
0.037079,-0.094148,-0.01297,-0.040436,-0.01236,0.027314,0.015106,0.018769
0.037995,-0.09659,-0.023041,-0.05478,-0.035248,0.0013733,-0.00045777,0.022736
0.014191,-0.065461,-0.0068666,-0.044709,0.051728,-0.010834,-0.022126,0.0090028
-0.02121,-0.046235,-0.016327,-0.041657,0.081636,-0.0056458,-0.019074,-0.052033
-0.002594,-0.060578,-0.020905,-0.066682,0.26383,-0.057527,0.044404,-0.083772
0.024872,-0.068818,-0.036774,-0.049592,0.28122,-0.0019837,0.084688,-0.060578
0.023041,-0.073396,-0.07126,-0.05478,-0.11521,0.055085,0.10269,-0.085298
-0.02121,-0.025483,-0.12284,-0.11337,-0.046845,-0.010834,-0.019074,-0.072175
-0.05478,0.01236,-0.12924,-0.10636,-0.0013733,-0.023957,-0.3679,-0.021515
-0.067292,-0.036774,-0.084688,-0.069429,-0.029755,-0.0074769,-0.066682,0.038911
-0.083772,-0.03769,-0.045624,-0.1091,-0.019074,0.00076295,0.11276,0.058442
-0.078889,-0.042573,-0.11337,-0.12345,-0.031281,-0.0019837,0.027924,0.037995
-0.10117,0.027619,-0.12222,-0.11704,-0.051118,0.010224,0.035859,0.051423
-0.10208,0.034028,-0.059968,-0.10636,-0.044709,0.033112,0.047456,0.076753
-0.062104,-0.00015259,-0.042878,-0.064851,-0.011139,0.02884,0.063935,0.10147
-0.018463,-0.022431,-0.050813,-0.068208,0.040131,0.0099184,0.038911,0.086213
-0.0062562,-0.056611,-0.0013733,-0.053559,0.050202,0.016022,0.027924,0.0795
0.036164,-0.093538,0.046845,-0.016327,0.059052,0.01297,0.023346,0.041962
0.074311,-0.15152,-0.014191,-0.037385,-0.041352,0.0206,0.02121,-0.021515
0.050202,-0.12589,-0.014801,-0.049287,-0.16953,0.024567,-0.016938,-0.067292
0.027314,-0.080415,-0.07187,-0.062715,-0.04654,-0.0022889,-0.012055,-0.073396
0.013275,-0.066377,-0.074922,-0.045624,0.09781,-0.0047303,0.02121,-0.04593
0.0016785,-0.034943,-0.049287,-0.052644,0.075837,0.026398,0.033112,-0.014191
-0.04715,0.0047303,-0.074922,-0.11032,0.054475,0.0065614,0.011749,-0.023651
-0.10361,0.030671,-0.10117,-0.16281,0.02884,0.014496,0.016938,0.013275
-0.096895,0.033722,-0.11063,-0.078889,-0.002594,0.0090028,0.014191,0.049592
-0.068818,0.045319,-0.11704,-0.10513,0.014191,-0.031281,-0.0062562,0.070039
-0.069429,0.068513,-0.12894,-0.12192,0.013581,0.027924,-0.0013733,0.036774
-0.058747,0.0099184,-0.11246,-0.12161,-0.0056458,0.1091,0.038911,0.016632
-0.048981,0.037995,-0.060578,-0.086824,-0.13107,0.24582,0.0019837,0.059052
-0.044709,0.010529,-0.0062562,-0.094453,-0.072175,-0.012055,-0.040436,0.039521
0.0013733,-0.11093,-0.0065614,-0.016022,0.09659,-0.40269,0.0028992,0.037079
0.0099184,-0.059663,-0.043183,-0.033112,0.058137,-0.026398,0.039826,-0.009308
0.011749,-0.075532,-0.040436,-0.093843,0.034333,0.041657,0.0038148,-0.024567
-0.0010681,-0.077974,-0.028229,-0.070344,0.002594,0.014191,0.0096132,-0.019074
-0.00015259,-0.081636,0.010834,-0.036774,-0.0041199,0.034333,0.019074,-0.036774
0.02884,-0.14023,0.020905,-0.025177,0.045014,0.0099184,0.016632,-0.050813
0.0047303,-0.10819,-0.042573,-0.057527,0.07126,0.014496,0.01297,-0.061799
-0.031281,-0.085908,-0.06302,-0.056916,0.065461,0.01297,0.0032044,-0.059968
-0.045319,-0.1088,-0.018463,-0.037385,0.048371,0.014191,0.0090028,-0.052033
-0.039826,-0.094453,-0.094453,-0.08072,0.031281,0.012055,0.009308,-0.024262
-0.04715,0.01236,-0.12131,-0.12497,0.017853,0.031586,0.04654,0.0074769
-0.036469,0.025177,-0.087129,-0.10788,-0.012665,0.024872,0.053864,0.018769
-0.059663,0.069123,-0.11276,-0.10575,-0.02884,-0.0053407,0.033112,0.015717
-0.06302,0.075837,-0.093538,-0.12497,-0.040436,0.0099184,0.048981,0.037995
-0.083162,0.11612,-0.086213,-0.10971,-0.039826,0.034638,0.036774,0.057832
-0.055085,0.0056458,-0.057221,-0.024872,-0.045319,0.028534,0.034943,0.0795
-0.045319,-0.0206,-0.082246,-0.15763,-0.0080873,-0.10239,-0.23545,0.061799
-0.033417,-0.014801,-0.018463,-0.09659,0.017548,-0.053559,-0.23239,0.041962
0.002594,-0.074006,0.016327,0.0032044,-0.025788,0.074922,0.074311,0.051118
-0.0086976,-0.094453,-0.024872,-0.025483,0.015412,0.032502,0.072786,0.0090028
0.024872,-0.11551,-0.049287,-0.045624,0.027924,0.0013733,0.0010681,-0.00015259
0.047456,-0.10849,-0.020294,-0.062715,0.026093,0.010529,-0.019684,-0.034333
0.043793,-0.11368,-0.080415,-0.075532,0.10269,0.031281,0.075227,-0.086824
0.0099184,-0.11582,0.0062562,-0.049592,0.15122,0.011444,0.052949,-0.088045
-0.011139,-0.11398,-0.046235,-0.074617,0.12558,-0.00076295,0.0038148,-0.06302
-0.035248,-0.016022,-0.087129,-0.089876,-0.047456,0.040131,0.026093,-0.0068666
-0.045319,-0.00076295,-0.066072,-0.093233,-0.40604,0.0795,0.026093,0.009308
-0.070954,-0.0038148,-0.089265,-0.084382,0.12161,0.011139,0.095369,0.033722
-0.11246,0.05417,-0.12284,-0.12436,0.092012,-0.021515,0.033417,0.062409
-0.14603,0.062409,-0.08957,-0.11521,-0.050507,0.0047303,-0.014496,0.10178
-0.10971,0.076143,-0.11337,-0.077363,-0.00076295,0.010834,0.0019837,0.11246
-0.077058,0.084688,-0.098116,-0.090486,-0.030365,0.016327,0.047456,0.064546
-0.059052,0.044709,-0.070649,-0.094759,-0.012665,0.005951,0.03769,0.027924
-0.02884,-0.016632,-0.045624,-0.09781,-0.027619,0.010529,0.023651,0.037995
0.022736,-0.065766,-0.027008,-0.074617,-0.014801,-0.00076295,-0.051118,0.0086976
0.016632,-0.11673,0.019379,-0.059358,0.0080873,-0.0080873,-0.10636,0.019684
0.034943,-0.1796,0.018769,-0.017243,0.034028,0.013275,0.023346,0.041657
0.039521,-0.13077,-0.037995,-0.036774,0.035859,0.018158,0.067597,0.051118
0.011749,-0.12192,0.019684,-0.062409,0.051118,0.0077821,0.03769,0.013886
0.025177,-0.14755,-0.0019837,-0.05539,0.060578,0.010529,0.039521,-0.026703
0.026093,-0.11246,-0.0383,-0.028229,0.048981,0.017853,0.039216,-0.017243
-0.002594,-0.016938,-0.10056,-0.066377,0.058137,0.0086976,0.029145,-0.036774
-0.034638,0.02121,-0.103,-0.088655,0.075837,-0.0050355,0.023346,-0.04654
-0.056611,0.029755,-0.1088,-0.12039,0.073091,-0.019684,0.025177,0.00076295
-0.073091,0.021515,-0.103,-0.1149,0.02945,-0.014801,0.023041,0.019989
-0.046845,0.027314,-0.11826,-0.11704,-0.018158,0.015412,0.0077821,0.016022
-0.091402,0.089265,-0.092927,-0.12375,-0.069123,0.050202,0.0047303,0.026703
-0.10452,0.045319,-0.058137,-0.083467,-0.11826,0.068818,0.018158,-0.0062562
-0.08896,0.013275,-0.092317,-0.056306,-0.1387,0.041352,0.037995,0.023346
-0.04715,-0.03769,-0.08835,-0.042878,-0.052644,0.011444,0.061189,0.04715
-0.0028992,-0.050202,-0.020905,-0.10391,0.043793,-0.0099184,0.045624,0.035859
0.017243,-0.040436,-0.016632,-0.093538,0.059358,-0.0016785,0.032807,-0.014496
0.011749,-0.044709,-0.041962,-0.057221,0.045319,0.010224,0.045014,-0.028229
0.011139,-0.066987,-0.020905,-0.042267,0.036774,-0.014801,-0.065766,-0.027314
0.0068666,-0.092012,-0.0019837,-0.044404,0.041657,-0.026093,-0.085603,-0.043793
-0.0032044,-0.023346,0.0032044,-0.035554,0.061799,-0.027924,-0.023346,-0.019074
0.011139,-0.042878,-0.010834,-0.040742,0.052033,-0.023957,-0.016632,-0.002594
0.0016785,-0.11276,0.0077821,-0.075227,0.040131,0.0013733,-0.010834,0.00045777
-0.011444,-0.2034,-0.065766,-0.081331,0.017548,0.024872,-0.046845,-0.014496
-0.019684,-0.17594,-0.11826,-0.058442,0.0047303,0.01297,-0.049287,-0.015412
-0.031281,-0.069734,-0.077974,-0.093233,0.022126,0.0038148,0.011749,0.017853
-0.062715,0.017853,-0.11276,-0.1088,0.0010681,0.0099184,0.075532,0.067292
-0.085603,0.091096,-0.1387,-0.10147,-0.030671,0.031281,0.073396,0.073701
-0.068818,0.092012,-0.087129,-0.10086,-0.023041,0.005951,0.014801,0.068513
-0.050507,0.04715,-0.058747,-0.12924,-0.018158,0.01236,0.078279,0.055695
-0.065156,0.061799,-0.080415,-0.10117,-0.041047,0.037995,0.083467,0.027924
-0.054475,0.026093,-0.074311,-0.058747,-0.039826,0.01236,0.034943,0.02884
0.0096132,-0.036469,-0.07248,-0.046845,0.0041199,-0.0035096,0.035248,0.034333
0.035554,-0.090181,0.012055,-0.06363,0.033417,-0.039216,-0.074922,-0.0035096
0.037995,-0.094148,-0.014191,-0.060273,0.030976,-0.043488,-0.33433,-0.05478
0.023346,-0.083772,-0.020294,-0.049592,0.026703,0.044709,0.0056458,-0.032807
0.0074769,-0.10056,-0.0016785,-0.056611,0.033722,0.040131,0.14115,-0.039521
0.0090028,-0.11063,-0.023041,-0.042878,0.027008,0.029145,0.0071717,-0.052949
0.022736,-0.12253,-0.0090028,-0.021515,0.024872,0.058747,0.079194,-0.058747
0.0096132,-0.089876,-0.035859,-0.098421,0.02945,0.027008,0.066377,-0.077974
-0.039826,-0.023651,-0.092622,-0.10178,0.036164,0.0022889,-0.00015259,-0.082246
-0.087739,0.017853,-0.079194,-0.025177,0.039216,-0.033722,-0.024262,-0.04593
-0.1033,0.055085,-0.11246,-0.092927,-0.00045777,-0.027314,-0.033722,0.019379
-0.096284,0.058747,-0.13107,-0.14359,-0.009308,-0.11337,-0.030365,0.070649
-0.073091,0.019379,-0.121,-0.12253,-0.07187,-0.068208,-0.055085,0.11826
-0.047761,-0.012055,-0.028534,-0.077058,-0.1619,0.18997,0.059052,0.11765
-0.060883,-0.00015259,-0.086213,-0.087129,0.19486,0.018769,0.050507,0.058137
-0.059663,0.015412,-0.0795,-0.077363,0.23117,-0.041657,0.017243,0.086519
-0.037079,-0.011444,-0.035859,-0.065156,-0.08957,0.03006,0.067597,0.11826
-0.029145,-0.0035096,-0.037079,-0.10636,0.026703,-0.0032044,0.051728,0.074006
-0.021515,-0.056001,-0.026703,-0.077668,0.0032044,0.041352,0.043488,0.056306
0.0077821,-0.044709,-0.013886,0.0016785,-0.027619,0.045624,0.024872,0.01297
-0.022431,-0.046845,-0.016022,-0.045319,-0.10971,0.049287,-0.0013733,-0.028229
-0.035554,-0.098421,-0.029755,-0.087129,-0.17777,0.044404,0.02182,-0.013581
-0.0041199,-0.14939,-0.039216,-0.091402,-0.0044251,0.0010681,0.050507,0.0016785
0.032807,-0.15579,-0.019074,-0.044709,0.11704,0.0071717,0.040131,0.013275
0.0068666,-0.088655,-0.063935,-0.0795,0.073701,0.009308,0.014191,-0.009308
-0.018769,-0.070649,-0.046235,-0.10269,0.04715,0.013886,0.011139,-0.016938
-0.03769,-0.0080873,-0.10513,-0.095064,0.0096132,0.022431,0.041352,-0.035554
-0.042573,0.047456,-0.13352,-0.10452,0.011444,0.0068666,0.019074,-0.0053407
-0.069734,0.075227,-0.10605,-0.079194,0.0028992,0.014801,0.0068666,-0.00045777
-0.081331,0.065461,-0.064546,-0.084382,0.0071717,-0.0032044,-0.0022889,-0.009308
-0.072175,0.051728,-0.13107,-0.12467,0.0096132,-0.0050355,-0.0086976,0.023041
-0.035554,-0.038911,-0.12772,-0.095674,-0.019379,0.028534,0.009308,0.046235
-0.002594,-0.059358,-0.013581,-0.056306,-0.018463,0.010224,0.00045777,0.040436
0.002594,-0.050813,-0.037079,-0.058442,0.0090028,-0.016938,-0.018158,0.0035096
0.02884,-0.061494,-0.031891,-0.056306,0.0080873,0.0080873,-0.0083925,-0.0065614
0.045319,-0.058747,-0.02884,-0.060578,0.026703,0.015412,-0.019684,-0.020905
0.055085,-0.10605,0.024262,-0.037079,0.043488,-0.0010681,-0.0383,-0.060578
0.041352,-0.1146,0.016327,-0.042878,0.059968,-0.0022889,-0.029755,-0.075837
0.023346,-0.11246,-0.022736,-0.033722,0.060273,0.0032044,0.027008,-0.070039
-0.0013733,-0.1088,-0.0062562,-0.045319,0.049592,0.016632,0.042267,-0.055695
-0.043793,-0.048981,-0.065156,-0.068208,0.053254,0.0062562,0.019074,-0.055085
-0.057832,-0.052949,-0.070954,-0.092622,0.033112,-0.0028992,0.0010681,-0.047761
-0.070649,-0.0047303,-0.090791,-0.11154,0.031281,-0.024262,0.016938,-0.029145
-0.10208,0.040742,-0.10269,-0.088655,0.0056458,0.016938,0.038911,0.017853
-0.11215,0.05417,-0.12711,-0.12863,-0.024567,0.026398,0.046235,0.059052
-0.10391,0.06363,-0.13352,-0.12955,-0.043488,0.011139,0.023651,0.1268
-0.1323,0.07248,-0.094759,-0.1033,-0.055695,0.00015259,-0.002594,0.17624
-0.1033,0.027924,-0.091096,-0.099947,-0.043488,-0.018158,-0.0022889,0.20096
-0.085603,0.019989,-0.075227,-0.092622,-0.034943,-0.0038148,0.02121,0.20249
-0.039216,-0.019989,-0.018158,-0.088655,-0.03769,0.026093,0.024262,0.13993
0.00076295,-0.077668,-0.0041199,-0.05417,-0.034333,0.060883,0.073701,0.051728
0.023651,-0.092622,-0.011749,-0.041352,-0.0096132,0.038911,0.044099,-0.010224
0.062409,-0.099641,-0.0047303,0.0013733,0.017243,0.034028,0.0071717,-0.041047
0.093538,-0.12558,0.0062562,-0.042878,0.060578,0.00045777,-0.010529,-0.095979
0.039826,-0.10575,-0.055085,-0.050813,0.087434,-0.025483,-0.031891,-0.13687
-0.0035096,-0.097505,-0.029145,-0.05478,0.078279,-0.00076295,-0.047456,-0.1445
0.0050355,-0.092012,-0.030671,-0.05539,0.061494,0.0080873,-0.013581,-0.08072
0.0013733,-0.072175,-0.040131,-0.056916,0.050507,0.0086976,0.0013733,-0.031281
-0.0056458,-0.0383,-0.074006,-0.1088,0.036164,0.0080873,0.0010681,-0.024262
-0.052949,0.012055,-0.11337,-0.089265,0.013275,0.0028992,-0.0013733,-0.011139
-0.068208,0.0383,-0.10056,-0.072786,-0.0068666,0.0053407,-0.0065614,-0.00076295
-0.077668,0.048676,-0.11337,-0.08957,-0.014496,0.0013733,0.0035096,0.031891
-0.059663,0.066377,-0.13169,-0.11551,-0.027314,0.014191,0.016022,0.065461
-0.052644,0.040131,-0.093538,-0.12467,-0.041657,0.012665,0.02121,0.10361
-0.027008,-0.017548,-0.042878,-0.10788,-0.049287,0.01236,0.041352,0.092317
0.0028992,-0.08835,-0.042267,-0.060578,-0.038911,0.025483,0.045014,0.040131
-0.0096132,-0.049897,-0.036469,-0.073396,-0.015412,0.012665,0.015106,0.012665
-0.025177,-0.0383,-0.024567,-0.075532,-0.0013733,0.010834,0.0047303,-0.018769
-0.023041,-0.053559,-0.024567,-0.060273,0.0038148,0.020294,0.016632,-0.031281
-0.029755,-0.081331,-0.024872,-0.036774,0.0080873,0.016022,0.0099184,-0.075532
-0.027619,-0.10575,-0.030671,-0.01236,0.03769,0.0028992,-0.016632,-0.10697
0.0016785,-0.1149,-0.030976,-0.044099,0.089265,-0.015717,-0.017548,-0.048371
-0.0010681,-0.10788,0.010224,-0.069734,0.083162,0.00015259,0.0077821,-0.012055
-0.024567,-0.08835,-0.022126,-0.040131,0.045014,0.0047303,0.049897,-0.0056458
-0.059663,-0.022736,-0.086519,-0.074311,0.024872,0.010834,0.074006,0.041657
-0.068208,0.015717,-0.10208,-0.11032,0.016938,0.011444,0.082551,0.076143
-0.066987,0.063325,-0.11917,-0.11368,-0.0050355,0.014496,0.094759,0.063935
-0.067292,0.057527,-0.10849,-0.12924,-0.022431,-0.00015259,0.0013733,0.084382
-0.074922,0.061799,-0.11521,-0.13169,-0.028534,0.023346,0.075532,0.099641
-0.056916,-0.030365,-0.044099,-0.089265,-0.052033,0.052338,0.072786,0.082246
-0.020905,-0.053559,-0.068208,-0.044404,-0.042573,0.010834,-0.22538,0.067903
-0.019684,-0.042573,-0.048371,-0.073091,0.0096132,-0.069429,-0.2031,0.034333
-0.012055,-0.048371,-0.066377,-0.083772,0.027619,-0.019684,0.0056458,0.00045777
-0.037385,-0.0096132,-0.062715,-0.091096,0.023041,0.09781,0.08835,-0.0206
-0.027619,-0.0080873,-0.040436,-0.073396,-0.10788,0.28641,0.034943,0.015106
-0.016938,-0.012665,-0.055085,-0.068208,-0.042573,-0.026398,-0.0972,0.0068666
0.043488,-0.095369,-0.030365,-0.061189,0.11795,-0.36545,-0.059968,0.009308
0.068513,-0.1326,-0.017853,-0.045319,0.050507,0.070954,0.1387,-0.0062562
0.029755,-0.0074769,-0.08011,-0.052949,0.039216,0.084688,0.084688,-0.029145
0.00076295,-0.0068666,0.02884,-0.026398,0.047456,0.034333,0.031891,-0.061189
0.044099,-0.16434,0.076143,-0.010224,0.052338,0.035248,-0.0062562,-0.092927
0.0080873,-0.21469,-0.057832,-0.079194,0.088045,-0.068208,-0.067903,-0.10971
-0.033417,-0.056306,-0.12558,-0.12161,0.098116,-0.12741,-0.099641,-0.081636
-0.060883,0.068513,-0.10605,-0.09781,0.030365,0.0206,-0.033112,-0.022736
-0.085298,0.048066,-0.12284,-0.084993,0.0047303,0.0206,0.00076295,0.02884
-0.073091,-0.0096132,-0.1149,-0.099336,-0.018769,0.011444,0.06302,0.048371
-0.11063,0.043183,-0.074922,-0.10086,-0.062715,0.036774,0.077668,0.089876
-0.11398,0.051728,-0.11032,-0.11307,-0.11551,0.031586,0.040436,0.15
-0.099641,-0.00015259,-0.039216,-0.07126,-0.11002,0.042878,0.061494,0.14542
-0.11002,-0.012665,-0.042267,-0.10056,-0.02121,0.059663,0.103,0.10208
-0.057832,-0.034333,-0.032502,-0.094759,-0.01236,0.070954,0.1149,0.10666
0.0010681,-0.027314,-0.040742,-0.077363,-0.0028992,0.067292,0.068208,0.061189
0.052033,-0.05417,-0.014191,-0.056306,0.029145,0.026398,-0.0035096,0.0074769
0.055085,-0.11551,-0.0080873,-0.045624,0.04715,-0.025788,-0.067292,-0.031281
0.052338,-0.094759,-0.016022,-0.023041,0.055695,-0.028229,-0.093233,-0.053254
0.045624,-0.10025,-0.040131,-0.044709,0.066682,-0.0013733,-0.029145,-0.066682
0.048371,-0.077363,-0.041657,-0.051118,0.085298,-0.013886,-0.009308,-0.081025
0.017853,-0.020905,-0.076448,-0.081636,0.055695,-0.00076295,-0.0065614,-0.084382
0.042267,-0.045624,-0.08835,-0.087739,0.019989,0.035248,0.035248,-0.061494
-0.014801,-0.034638,-0.059358,-0.091707,0.024872,0.00045777,0.025177,-0.033417
-0.037385,-0.037995,-0.068513,-0.077363,0.029145,-0.044099,-0.0083925,-0.034333
-0.073396,0.0038148,-0.090486,-0.096284,0.023041,-0.091707,-0.012665,-0.033722
-0.099641,0.024567,-0.074006,-0.093233,0.0010681,-0.069123,-0.017548,-0.019379
-0.094453,0.025177,-0.092317,-0.08957,-0.14755,0.15152,-0.00076295,0.025788
-0.077363,0.0071717,-0.084077,-0.09781,-0.13138,0.14755,0.047456,0.046845
-0.059663,-0.0016785,-0.062409,-0.073701,-0.015412,0.0071717,0.02945,0.048066
-0.051728,-0.0047303,-0.060883,-0.099641,0.059358,-0.023041,-0.016327,0.059968
-0.048676,-0.032502,-0.061189,-0.07248,0.077363,-0.013886,-0.048371,0.025788
-0.015412,-0.077668,-0.032197,-0.048676,0.076753,-0.015106,-0.046845,0.054475
0.002594,-0.083467,-0.032807,-0.066377,0.094148,-0.019074,0.00076295,0.072786
-0.015717,-0.055695,-0.017853,-0.059052,0.067597,0.017243,0.15946,0.075837
-0.023346,-0.081331,0.027314,-0.049592,-0.069734,0.080415,0.1976,0.10208
-0.017548,-0.11551,0.0086976,-0.032197,-0.17258,0.067292,0.18112,0.086824
-0.031281,-0.092012,-0.042267,-0.055695,0.019074,0.0041199,0.18936,0.075227
-0.041962,-0.058137,-0.058442,-0.059663,0.11215,0.010529,-0.19394,0.050507
-0.031281,-0.051423,-0.081025,-0.064851,-0.3032,0.04715,-0.28305,0.005951
-0.042573,0.029755,-0.1088,-0.10239,0.34073,-0.070039,0.0050355,-0.064851
-0.066072,0.00045777,-0.085908,-0.077668,0.26627,-0.02884,-0.062104,-0.069429
-0.084382,0.033417,-0.11124,-0.11704,-0.1857,0.018158,-0.040436,-0.026398
-0.095064,0.076753,-0.13626,-0.12467,0.026093,-0.039521,-0.0071717,-0.022431
-0.064546,0.053864,-0.086213,-0.081025,-0.037385,-0.0010681,0.044404,0.023957
-0.052949,0.021515,-0.086824,-0.099336,-0.044709,0.017853,0.09659,0.059052
-0.025483,0.0038148,-0.04715,-0.10666,-0.032197,0.020905,0.074617,0.056306
-0.0013733,-0.026398,-0.036164,-0.10666,-0.02884,0.022126,0.032197,0.029145
0.02884,-0.070954,-0.026093,-0.073396,-0.018463,-0.00015259,-0.011139,-0.010834
0.059663,-0.10971,-0.024262,-0.046845,-0.0083925,0.023041,-0.020294,-0.04593
0.069734,-0.15366,0.016632,-0.032197,0.022126,0.034333,0.010529,-0.085908
0.077974,-0.14572,-0.051118,-0.012665,0.049897,0.0047303,-0.016632,-0.092927
0.056001,-0.13901,0.002594,-0.05417,0.062104,0.0065614,-0.009308,-0.071565
0.048981,-0.15152,-0.00076295,-0.044404,0.055695,0.01297,-0.0056458,-0.047456
0.0035096,-0.08072,-0.047761,-0.0050355,0.04715,0.016938,-0.010529,-0.053864
-0.020294,-0.024567,-0.052338,-0.077668,0.047456,0.002594,-0.0019837,-0.056001
-0.074922,0.020294,-0.092012,-0.10391,0.049287,-0.013275,-0.00015259,-0.03769
-0.097505,0.05539,-0.13138,-0.12497,0.011749,0.010224,0.021515,0.025483
-0.093843,0.033722,-0.10605,-0.15396,-0.027314,0.011139,0.024872,0.051423
-0.11398,0.074617,-0.12284,-0.11856,-0.04654,0.022431,0.033722,0.081331
-0.11948,0.081636,-0.098116,-0.065766,-0.05478,0.040436,0.07248,0.12985
-0.079805,0.023651,-0.049287,-0.036774,-0.052949,0.045624,0.066072,0.14206
-0.061799,0.011749,-0.085908,-0.14755,-0.033112,0.023957,0.017853,0.095674
-0.070954,0.0099184,-0.060883,-0.078279,-0.010529,-0.030365,-0.016632,0.094453
-0.038605,-0.039826,-0.0056458,-0.0972,0.033417,-0.011139,0.018769,0.1149
-0.0035096,-0.13077,0.050813,-0.051118,0.042878,0.00015259,0.016022,0.058137
0.036774,-0.14633,-0.024872,-0.035554,0.017548,-0.011444,-0.015717,0.009308
0.045014,-0.10575,-0.042878,-0.041657,0.045014,0.0071717,-0.017243,-0.022431
0.036164,-0.082856,-0.05417,-0.039521,0.04715,0.025483,-0.038911,-0.060578
0.044404,-0.095674,-0.059052,-0.067597,-0.00076295,0.046235,-0.014801,-0.087739
0.053559,-0.094453,-0.0083925,-0.051423,0.0080873,0.024262,0.023957,-0.13352
0.017853,-0.10025,-0.023651,-0.041047,0.052949,-0.01297,0.031586,-0.1387
0.024872,-0.035554,-0.082856,-0.052644,0.060578,0.0050355,0.073701,-0.11948
-0.028534,0.018158,-0.090181,-0.091096,0.052949,0.0062562,0.054475,-0.077974
-0.081025,0.060273,-0.13565,-0.11582,0.011749,0.0077821,0.063325,-0.022431
-0.090181,0.095674,-0.13077,-0.18601,-0.037079,0.025483,0.024262,0.061494
-0.099031,0.077974,-0.10666,0.018769,-0.044404,-0.014801,-0.1622,0.10605
-0.085908,0.022126,-0.034943,-0.12314,-0.0047303,-0.14511,-0.20066,0.12924
-0.11215,0.026398,-0.077363,-0.1619,0.0383,-0.050507,-0.045319,0.11032
-0.043793,-0.012665,-0.068513,-0.084382,-0.025483,0.067292,0.11246,0.085298
0.013886,-0.081331,-0.02182,-0.066682,-0.07187,0.04715,0.081636,0.060578
0.037385,-0.1561,0.010529,0.023957,-0.050813,0.022126,0.050202,0.034028
0.02182,-0.11887,-0.033722,-0.051118,0.029755,0.028534,0.046235,0.035554
0.022126,-0.11551,-0.017548,-0.094759,0.067903,0.033417,0.010834,0.0065614
0.020905,-0.11185,-0.01236,-0.066682,0.005951,-0.011444,-0.075227,-0.039826
-0.0062562,-0.096895,-0.025483,-0.069734,0.020905,-0.01297,-0.091096,-0.050813
-0.039216,-0.066377,-0.045624,-0.047761,0.033722,-0.0035096,0.0086976,-0.047456
-0.030976,-0.070649,-0.068208,-0.045624,0.025788,0.0206,0.056306,-0.051118
-0.017548,-0.042267,-0.026703,0.00076295,0.032197,0.019989,0.025788,-0.058747
-0.035248,0.017243,-0.084382,-0.077668,0.051423,-0.0068666,0.0013733,-0.066987
-0.079805,0.062104,-0.11826,-0.10971,0.043793,-0.013275,0.009308,-0.041962
-0.087129,0.070039,-0.12741,-0.12161,-0.014191,0.011139,0.047761,0.034028
-0.10819,0.096284,-0.066987,-0.12924,-0.027619,0.013886,0.041657,0.077668
-0.11551,0.044404,-0.070344,-0.084382,-0.015412,0.0080873,0.036774,0.075837
-0.11551,0.039216,-0.090181,-0.065461,-0.035859,0.037995,0.050202,0.092927
-0.11215,0.092012,-0.11307,-0.13352,-0.02945,0.030365,0.040131,0.10361
-0.073701,0.062104,-0.051728,-0.13382,-0.030671,0.032807,0.031586,0.10636
0.0065614,-0.086824,-0.0056458,-0.091096,-0.064546,0.056306,0.045624,0.081331
0.061799,-0.2388,0.018158,-0.013581,-0.017243,0.034333,0.047456,0.070649
0.052033,-0.094759,0.0065614,0.00045777,0.058137,-0.022736,0.0038148,0.032197
0.028229,-0.048981,-0.058137,-0.06363,0.086213,-0.0080873,0.019379,0.0099184
0.050202,-0.17136,-0.026398,-0.051118,0.050507,0.03006,0.0086976,-0.017548
0.049897,-0.1857,-0.0206,-0.058747,0.025483,0.012055,0.0019837,-0.016632
0.045014,-0.16342,0.010529,-0.045319,0.042878,0.0099184,0.032197,-0.044709
0.019989,-0.060883,-0.03006,-0.040131,0.059052,-0.0016785,-0.0074769,-0.074617
-0.025177,0.023957,-0.10147,-0.099947,0.05417,0.012055,-0.056611,-0.093843
-0.023346,0.005951,-0.10666,-0.081636,0.029755,-0.031586,-0.048981,-0.059663
-0.057832,0.03006,-0.15763,-0.093538,0.010529,-0.047456,-0.13962,-0.017548
-0.06363,0.06363,-0.11337,-0.10849,-0.00045777,0.0022889,-0.067903,0.0077821
-0.048371,-0.031891,-0.056916,-0.099031,-0.018463,0.042573,0.10269,0.060578
-0.052644,-0.049897,-0.060273,-0.095064,-0.020294,0.019989,0.053864,0.049592
-0.091096,0.030671,-0.10361,-0.091707,-0.031281,0.0083925,0.0099184,0.02884
-0.092012,0.077668,-0.095064,-0.10361,-0.025788,-0.00015259,0.011749,0.022126
-0.03769,-0.011444,-0.044404,-0.086519,-0.036469,0.0071717,0.0090028,0.052949
-0.018463,-0.028229,-0.038605,-0.06363,-0.044404,0.022431,0.026703,0.033112
0.0010681,-0.031891,-0.023651,-0.084382,-0.01297,0.024262,0.027008,-0.00045777
0.031281,-0.078279,-0.0013733,-0.072175,0.0053407,0.019379,0.017243,0.0038148
0.04593,-0.091707,-0.010224,-0.049592,0.011139,0.037385,-0.0035096,-0.010224
0.029755,-0.11429,0.0062562,-0.032197,0.04593,0.026703,-0.010224,-0.062104
0.0050355,-0.1323,0.0062562,-0.036469,0.057527,-0.0053407,-0.0062562,-0.086213
0.033112,-0.14572,-0.046235,-0.02884,0.052338,-0.00076295,0.032197,-0.06302
0.011139,-0.09659,-0.037079,-0.068513,0.06363,-0.016938,-0.038911,-0.051118
-0.069429,0.015106,-0.082246,-0.081331,0.065156,-0.027924,-0.037079,-0.049592
-0.095674,0.058137,-0.098726,-0.095369,0.012055,-0.0022889,-0.0010681,-0.024567
-0.085908,0.021515,-0.096284,-0.071565,0.02121,-0.013886,-0.01236,0.029755
-0.060578,0.010529,-0.11643,-0.10941,0.045319,-0.016938,-0.0013733,0.082856
-0.062104,0.013275,-0.099031,-0.12467,0.002594,0.010224,-0.00076295,0.07187
-0.070649,0.068513,-0.086824,-0.14084,-0.052644,0.022126,0.035248,0.098421
-0.089265,0.053864,-0.10941,-0.13321,-0.066072,0.032502,0.033722,0.098116
-0.085298,0.030671,-0.10025,-0.087434,-0.068818,0.027008,0.062409,0.084382
-0.046845,-0.023957,-0.057832,-0.070344,-0.066987,0.011444,0.070649,0.085603
0.00076295,-0.085908,0.0016785,-0.03769,0.012055,0.032502,0.07126,0.094453
0.021515,-0.10758,-0.016632,-0.057527,0.10086,0.016632,0.060578,0.056611
0.030976,-0.13565,-0.0068666,-0.047456,0.10697,0.014801,0.011139,0.015412
0.073701,-0.13016,-0.0044251,-0.051728,0.012665,0.040131,-0.0068666,-0.013581
0.027314,-0.10208,-0.015717,-0.044099,-0.1799,0.053254,-0.016632,-0.071565
-0.026703,-0.074006,-0.02884,-0.061494,-0.11368,0.020294,-0.002594,-0.086213
-0.0096132,-0.074617,-0.039216,-0.040131,0.11093,-0.035554,-0.0050355,-0.064851
-0.045319,-0.037995,-0.062409,-0.051118,0.12589,-0.050507,-0.0047303,-0.044404
-0.053559,0.0086976,-0.099641,-0.098726,0.078279,-0.076448,0.034333,0.005951
-0.062715,0.025788,-0.091402,-0.11307,0.068513,-0.062104,0.025788,0.019074
-0.091402,0.051728,-0.086213,-0.077363,-0.077363,0.15396,0.030365,0.0077821
-0.082246,0.033722,-0.10452,-0.08835,-0.10819,0.1677,0.037995,0.028229
-0.072175,0.029755,-0.098421,-0.11704,-0.010529,0.017853,0.015412,0.030976
-0.081636,0.037079,-0.095064,-0.10727,0.011444,-0.034943,-0.030976,0.017548
-0.083772,0.027924,-0.078279,-0.09781,-0.02121,-0.011749,0.033417,0.015717
-0.052644,-0.020905,-0.050202,-0.081025,-0.027619,0.015412,0.090181,0.049897
-0.036469,-0.02884,-0.047761,-0.074311,-0.015412,0.0080873,-0.19791,0.035248
-0.0053407,-0.077668,-0.022736,-0.061189,0.015717,-0.013581,-0.20005,0.033417
0.033112,-0.12406,0.0035096,-0.044709,-0.012665,0.0062562,0.080415,0.027314
0.051118,-0.14359,-0.0044251,-0.044404,-0.058747,0.010529,0.12222,0.011444
0.073396,-0.12833,-0.032197,-0.058137,0.019989,-0.00076295,0.032197,-0.024262
0.078279,-0.11551,0.027619,0.0080873,0.065461,0.019074,0.048981,-0.023651
0.034943,-0.081941,-0.025788,-0.048371,0.17533,-0.023957,0.037385,-0.045624
0.014801,-0.057527,-0.066072,-0.080415,0.39109,-0.050507,-0.015106,-0.063325
0.02121,-0.062715,-0.078279,-0.070344,-0.023346,0.044099,-0.027314,-0.041047
0.0032044,-0.016632,-0.10086,-0.099641,-0.075227,-0.019379,-0.002594,-0.089265
-0.029145,0.03006,-0.13107,-0.103,0.02945,-0.031586,-0.083467,-0.097505
-0.058747,0.019989,-0.12467,-0.091096,-0.040436,0.0032044,-0.27146,-0.043183
-0.087129,0.025788,-0.065156,-0.067597,-0.15763,0.2739,0.13413,0.0099184
-0.12802,0.069123,-0.10605,-0.093843,0.01297,-0.18051,0.12222,0.031586
-0.13321,0.094759,-0.11765,-0.13443,0.090181,-0.35599,-0.1207,0.10239
-0.11582,0.063935,-0.074311,-0.13535,-0.049287,0.049592,0.12039,0.12985
-0.091096,-0.00015259,-0.030976,-0.087434,-0.075532,0.044709,-0.16648,0.087739
-0.062104,-0.035859,-0.026093,-0.073701,-0.041962,0.069734,-0.28611,0.05539
-0.012055,-0.099947,-0.0047303,-0.059663,-0.02945,0.089876,0.19272,0.088655
0.00045777,-0.1738,0.033722,-0.033722,0.0050355,0.055085,0.16434,0.069429
0.0019837,-0.15763,-0.014801,-0.036164,0.041352,0.026703,0.1146,0.031891
-0.00045777,-0.13046,-0.027619,-0.05478,0.05417,0.020294,0.13596,0.018769
-0.0062562,-0.087739,-0.047761,-0.048676,0.031891,0.031586,0.11826,0.034943
0.00076295,-0.075532,-0.0086976,-0.07126,0.025788,0.044709,0.094148,-0.010529
0.010529,-0.030976,-0.06424,-0.084688,0.026093,0.050202,0.051728,-0.052033
0.015106,-0.0099184,-0.092622,-0.065156,0.0086976,0.035248,0.0056458,-0.041962
-0.014801,-0.00045777,-0.095369,-0.081025,0.0068666,0.024262,-0.019074,-0.018463
-0.023651,0.065156,-0.099031,-0.093538,0.013886,-0.0047303,-0.029755,-0.051728
-0.028534,0.067903,-0.12985,-0.09781,-0.0080873,-0.014801,-0.042573,-0.041962
-0.033722,0.073396,-0.11215,-0.091096,-0.023346,-0.0062562,-0.031586,0.0074769
-0.053559,0.032197,-0.085908,-0.099031,0.044099,-0.016938,0.0090028,0.035248
-0.087434,-0.013581,-0.032197,-0.091707,0.099947,-0.029755,-0.0050355,0.056001
-0.059052,-0.092317,-0.005951,-0.095674,0.070344,-0.016022,-0.00076295,0.075227
-0.053864,-0.064851,-0.081331,-0.10178,-0.075837,0.0010681,0.010529,0.070039
-0.066072,-0.026703,-0.058137,-0.10758,-0.42435,0.08072,0.053254,0.075227
-0.031891,-0.090181,-0.03006,-0.074311,0.065766,0.062104,0.079805,0.11398
0.020905,-0.10971,-0.019684,-0.036164,0.065156,0.049287,0.078584,0.059358
0.025788,-0.099336,0.00076295,-0.023041,-0.0096132,0.043488,0.022126,-0.06302
0.053864,-0.14694,0.048371,0.00076295,0.098116,0.0044251,-0.045624,-0.11856
0.10452,-0.12802,-0.041962,-0.020905,0.077363,-0.019989,-0.040742,-0.14328
0.061494,-0.036164,-0.075227,-0.061494,0.095674,-0.03006,-0.0019837,-0.13046
0.02884,-0.0022889,-0.083467,-0.10575,0.068208,-0.027924,-0.039826,-0.034638
-0.027008,-0.0047303,-0.084077,-0.093843,0.025483,-0.014801,-0.056916,0.026093
-0.05478,-0.019989,-0.082551,-0.066987,0.030365,-0.00076295,-0.0028992,0.023651
-0.11521,-0.0074769,-0.10208,-0.096895,0.017853,-0.0071717,0.013886,0.058442
-0.13993,0.063935,-0.11032,-0.09659,-0.00076295,-0.02182,-0.11215,0.060273
-0.11337,0.054475,-0.084077,-0.062409,-0.024872,-0.0086976,0.025788,0.071565
-0.098421,0.028229,-0.16678,-0.13474,-0.035859,0.009308,0.066682,0.027619
-0.096284,0.058442,-0.11276,-0.1561,-0.081941,0.027924,-0.019379,-0.0062562
-0.053864,0.011139,-0.062409,-0.1091,-0.099031,0.028534,-0.0028992,0.012055
-0.031586,0.0383,-0.021515,-0.076753,-0.026398,0.0068666,0.029755,0.011139
0.00045777,-0.066072,0.019684,-0.04654,-0.002594,0.0071717,0.010529,-0.0086976
0.03769,-0.13657,0.041962,-0.027314,0.023957,0.0053407,0.016022,-0.00045777
0.041962,-0.17197,-0.0056458,-0.048371,0.049897,0.0077821,0.0099184,0.022736
0.060273,-0.20005,-0.026093,-0.02121,0.04715,0.020294,0.070039,0.023041
0.059968,-0.090181,-0.070954,-0.015412,0.061189,0.019074,0.085298,-0.009308
0.069734,-0.078279,0.0083925,-0.026703,0.08072,-0.0068666,0.024262,-0.073091
0.029755,-0.11185,-0.03769,-0.05478,0.061799,-0.031281,-0.033112,-0.084382
-0.016938,-0.044709,-0.10239,-0.14694,0.035554,-0.027924,-0.085603,-0.092927
-0.056001,-0.056001,-0.094453,-0.077058,0.02182,0.0086976,-0.049897,-0.056916
-0.068208,0.0083925,-0.10605,-0.093538,0.016022,0.042573,0.078279,0.012665
-0.11307,0.10575,-0.076143,-0.10666,0.016022,0.019989,0.02884,0.053559
-0.15152,0.10056,-0.13962,-0.11337,-0.022126,0.0068666,0.0077821,0.070039
-0.15274,0.080415,-0.095064,-0.10575,-0.04654,0.010834,0.031586,0.11307
-0.1323,0.066072,-0.079194,-0.12161,-0.04593,0.013275,0.043488,0.13626
-0.098421,0.03769,-0.053864,-0.1091,-0.044404,0.016022,0.058442,0.11398
-0.05539,-0.027314,-0.037079,-0.068513,-0.035859,0.0206,0.059052,0.069734
-0.023346,-0.062104,-0.067292,-0.019379,-0.022736,0.024262,0.047761,0.045319
0.016938,-0.10391,-0.023041,-0.08072,0.0032044,0.0047303,-0.0032044,0.030365
0.04715,-0.14054,0.01236,-0.052338,0.013886,-0.0080873,-0.052644,0.0028992
0.076753,-0.12253,-0.029145,0.0013733,0.0099184,-0.011749,-0.062715,0.0050355
0.076143,-0.098116,0.024262,-0.044404,0.083162,0.010834,-0.0019837,-0.025483
0.045319,-0.068513,-0.025483,-0.085298,0.09659,0.030976,0.059663,-0.084077
0.029145,-0.069429,-0.035554,-0.058442,0.034028,0.010224,0.00076295,-0.099641
0.0053407,-0.064851,-0.058137,-0.091096,0.038911,-0.0077821,-0.011444,-0.083162
-0.0035096,-0.026703,-0.053254,-0.059052,0.032197,-0.0096132,-0.0062562,-0.062104
-0.051423,0.016022,-0.11124,-0.10117,0.0038148,-0.0086976,-0.013581,-0.038911
-0.0383,0.0032044,-0.065156,-0.087129,0.0047303,0.0010681,-0.035859,-0.032807
-0.059968,0.036469,-0.12222,-0.10056,-0.018463,0.010529,-0.039521,-0.010529
-0.07126,0.053254,-0.11429,-0.12284,-0.024872,0.0068666,-0.0044251,0.041962
-0.087129,0.034638,-0.08957,-0.10941,-0.041657,0.016938,0.022736,0.10025
-0.10056,0.019989,-0.090181,-0.093538,-0.037385,0.018463,0.059052,0.14054
-0.11307,0.024262,-0.067292,-0.10269,-0.029755,0.030671,0.10636,0.11704
-0.079805,-0.02182,-0.049897,-0.080415,-0.014801,0.020294,0.13596,0.087434
-0.041352,-0.085908,-0.038605,-0.047456,-0.0065614,0.012665,0.059663,0.092927
-0.010834,-0.092622,-0.027924,-0.079194,0.019684,0.012055,0.005951,0.059052
0.027924,-0.15213,0.0053407,-0.031586,0.070039,0.010224,0.0010681,-0.010529
0.028229,-0.088655,-0.036469,-0.040742,0.085603,0.028534,-0.0019837,0.0080873
0.039826,-0.11032,0.013886,-0.034638,0.092622,0.012055,-0.014191,-0.021515
0.033417,-0.10086,-0.034028,-0.041047,0.070649,-0.020905,-0.035248,-0.074922
0.022736,-0.081941,-0.044709,-0.05478,-0.11307,0.026703,-0.024262,-0.067903
0.005951,-0.046235,-0.059052,-0.067292,-0.1619,0.010529,-0.01297,-0.098116
-0.027314,-0.07187,-0.036164,-0.077058,0.026093,-0.025788,-0.019379,-0.042878
-0.064851,-0.0035096,-0.12833,-0.088655,0.090181,-0.012055,-0.019074,0.0077821
-0.088045,0.023651,-0.1091,-0.11276,0.048066,0.0062562,-0.024872,0.0035096
-0.086213,0.060273,-0.11307,-0.10178,0.027924,0.026703,0.0013733,0.029755
-0.075532,0.040436,-0.081331,-0.099031,0.0035096,0.022431,0.015106,0.043183
-0.10117,0.024262,-0.074922,-0.098726,-0.013581,0.013275,0.032807,0.069429
-0.082856,0.022126,-0.10758,-0.10391,-0.03769,0.035554,0.039826,0.075837
-0.056916,0.022431,-0.061799,-0.12039,-0.079194,0.055695,0.025788,0.036774
-0.030976,-0.012055,-0.038605,-0.095369,-0.11093,0.032502,-0.016327,0.0053407
0.019379,-0.072786,0.016327,-0.055085,-0.025788,-0.077974,-0.023346,0.0068666
0.063935,-0.13596,0.034333,-0.018769,0.069734,-0.023651,-0.0086976,0.0086976
0.091707,-0.15579,-0.019684,-0.010529,0.091707,0.037385,0.020294,-0.073396
0.081941,-0.13474,-0.010834,-0.014801,0.10544,-0.011139,0.0086976,-0.10239
0.024872,-0.069734,-0.056306,-0.074922,0.076448,-0.0090028,0.015717,-0.081025
-0.0086976,-0.052949,-0.034028,-0.081331,0.030365,0.022736,0.031586,-0.036774
-0.0013733,-0.074617,-0.059052,-0.067292,0.023041,0.023041,0.028229,0.010529
-0.016327,-0.058137,-0.073091,-0.095064,0.038911,-0.0028992,0.0050355,0.027008
-0.058137,-0.014801,-0.084993,-0.10483,0.024262,-0.011139,-0.0050355,0.0013733
-0.11917,0.025483,-0.10422,-0.10513,0.0099184,0.016632,0.019989,0.0071717
-0.14389,0.062104,-0.1088,-0.12955,-0.0044251,0.027924,0.031891,0.056306
-0.13382,0.060578,-0.103,-0.10117,-0.033722,0.024567,0.027314,0.061799
-0.11032,0.06424,-0.088655,-0.0795,-0.035554,-0.0035096,0.013275,0.076753
-0.074006,0.035248,-0.083467,-0.088655,-0.031281,-0.011444,0.012665,0.084077
-0.078279,0.059358,-0.085298,-0.094759,-0.032197,-0.0062562,0.010529,0.078279
-0.087434,0.038605,-0.067903,-0.12314,-0.11002,0.033112,0.039216,0.073396
-0.02945,-0.044709,-0.028229,-0.059052,-0.076753,0.051423,0.0795,0.071565
0.035554,-0.10697,-0.01297,-0.028229,0.037079,-0.0038148,0.086213,0.051118
0.050202,-0.13687,-0.0022889,-0.053254,0.082551,-0.06363,0.011444,-0.031281
0.066377,-0.1326,-0.021515,-0.053254,0.3679,-0.15152,-0.10697,-0.058747
0.10788,-0.13199,-0.019989,-0.065156,0.12284,0.015106,-0.13443,-0.065766
0.078584,-0.12589,-0.0074769,-0.044709,-0.27451,0.23392,-0.0019837,-0.069429
0.04715,-0.11093,-0.005951,-0.022736,-0.076143,0.11948,0.013581,-0.0795
-0.010224,-0.03006,-0.056611,-0.05478,0.058137,0.00076295,0.027314,-0.073396
-0.039521,-0.040742,-0.077974,-0.086519,0.057527,-0.0090028,0.0383,-0.0383
-0.052033,-0.018769,-0.083467,-0.095369,0.043488,-0.018769,-0.0022889,-0.027314
-0.067903,-0.042267,-0.076448,-0.062715,0.034028,-0.024262,-0.009308,-0.0028992
-0.096895,0.018158,-0.1207,-0.081331,0.00076295,-0.019684,-0.025483,0.014801
-0.13748,0.073091,-0.12161,-0.13291,-0.0056458,-0.047456,0.0050355,0.043793
-0.11246,0.05417,-0.1088,-0.15091,-0.018463,-0.047456,-0.0032044,0.10544
-0.093233,0.033112,-0.10727,-0.09659,-0.052644,0.0086976,0.025177,0.14511
-0.063325,0.023651,-0.070954,-0.085908,-0.039826,0.018463,0.043793,0.13993
-0.018158,-0.030671,-0.039826,-0.060883,-0.021515,0.017243,0.044099,0.12406
0.015717,-0.035859,-0.042573,-0.054475,-0.0028992,0.016938,0.052949,0.061189
0.039826,-0.035554,-0.030671,-0.056611,0.0096132,0.024872,0.049287,0.0019837
0.057527,-0.070954,-0.002594,-0.051118,0.018158,0.032197,0.033722,-0.050507
0.037079,-0.14267,0.053864,-0.061494,0.0206,0.031586,0.02182,-0.049897
0.022126,-0.15488,0.0083925,0.078889,0.023346,0.02884,0.019074,-0.081331
0.0096132,-0.14084,-0.050202,-0.1207,0.042878,0.012665,0.018158,-0.093233
-0.025788,-0.069734,-0.076753,-0.12375,0.078279,-0.0086976,0.0013733,-0.08957
-0.057221,-0.034638,-0.0795,-0.083772,0.027314,0.016938,0.0077821,-0.073396
-0.065766,-0.0062562,-0.11032,-0.059052,0.01297,0.016327,0.00045777,-0.057221
-0.10391,0.032502,-0.11337,-0.097505,0.0065614,0.0028992,-0.0044251,-0.028229
-0.10605,0.026398,-0.07126,-0.093843,0.0016785,0.0022889,-0.016327,0.044099
-0.092317,0.0099184,-0.062409,-0.071565,0.0096132,-0.0032044,-0.029755,0.082856
-0.067292,-0.009308,-0.035554,-0.050507,0.0019837,-0.02121,-0.0056458,0.077974
-0.057527,0.018463,-0.103,-0.081331,-0.0010681,-0.016022,0.016022,0.11307
-0.059358,0.048371,-0.12863,-0.1561,-0.015717,0.0053407,0.04654,0.14206
-0.027008,-0.002594,-0.061189,-0.11704,-0.035554,0.017853,0.043488,0.11093
-0.0010681,-0.041657,-0.044099,-0.085298,-0.04654,0.026093,0.03769,0.073701
0.021515,-0.07248,-0.041962,-0.076753,-0.02945,0.017243,0.039826,0.011749
0.033722,-0.06363,-0.0038148,-0.052338,-0.015717,0.020294,0.0071717,-0.02945
0.04654,-0.11368,0.015717,-0.0383,0.026093,0.0099184,0.027008,-0.047456
0.068208,-0.15854,0.023957,0.017548,0.061494,-0.0010681,0.034943,-0.060578
0.053864,-0.095979,-0.058442,-0.02121,0.06302,0.0077821,0.067903,-0.099031
0.030976,-0.048676,-0.050813,-0.068513,0.040436,-0.0032044,-0.0086976,-0.079194
0.0074769,-0.08072,-0.062104,-0.13291,0.0096132,-0.010224,-0.28916,-0.046845
-0.038911,-0.055695,-0.062409,-0.065156,0.060273,-0.021515,-0.10208,-0.036774
-0.059968,0.0083925,-0.078889,-0.066682,0.074617,0.028534,0.12985,-0.0090028
-0.08835,0.031281,-0.10819,-0.093233,0.027008,0.05478,0.12253,-0.024262
-0.081025,0.028534,-0.12772,-0.12589,-0.013275,0.014801,0.073701,-0.025483
-0.08011,0.039216,-0.086519,-0.12894,-0.034638,0.0080873,0.053559,0.031891
-0.065766,0.027314,-0.093233,-0.10239,-0.045014,0.022126,-0.0083925,0.052033
-0.062715,0.037079,-0.082246,-0.09781,-0.041962,-0.0032044,-0.063325,0.085908
-0.045014,-0.009308,-0.027924,-0.074922,-0.02884,-0.036469,-0.091096,0.10483
-0.035859,-0.014191,-0.038605,-0.048981,-0.014191,-0.03769,-0.0383,0.062104
-0.057832,-0.046235,-0.063935,-0.099031,0.019684,-0.022126,0.0016785,0.0053407
-0.041352,-0.069429,-0.074006,-0.018769,0.015717,0.005951,0.019989,0.017548
-0.034333,-0.058442,-0.0047303,-0.044099,0.019379,0.017243,0.057832,0.045624
-0.0090028,-0.056916,-0.0038148,-0.082246,0.021515,0.038605,0.10208,0.096895
0.0056458,-0.095674,-0.018158,-0.052644,-0.00015259,0.065461,0.11063,0.051728
0.019989,-0.11063,-0.020905,-0.079805,0.019074,0.044709,0.062104,-0.06363
0.037995,-0.041657,-0.11826,-0.073091,0.025788,0.059663,0.039521,-0.051423
0.051118,-0.099947,-0.0080873,-0.036469,0.027008,0.063325,0.019684,-0.056916
0.045319,-0.19364,0.018463,-0.028229,0.038911,0.017853,0.034028,-0.06363
-0.018463,-0.072175,-0.099336,-0.074311,0.04715,-0.023346,0.035248,-0.048371
-0.04654,-0.016938,-0.093538,-0.10697,0.038911,-0.035248,0.056001,0.009308
-0.067292,-0.0065614,-0.082856,-0.099031,0.0019837,-0.053559,0.077668,0.093843
-0.11978,0.08835,-0.13107,-0.10269,-0.020294,-0.056001,-0.22934,0.069123
-0.13352,0.096284,-0.11887,-0.16281,-0.020905,-0.018158,-0.32151,0.04715
-0.11337,0.070039,-0.066072,-0.15549,-0.049287,0.019379,0.049592,0.094759
-0.08896,0.070344,-0.062409,-0.059663,-0.064546,0.044709,0.039826,0.084688
-0.069123,0.04654,-0.07248,-0.051728,-0.028534,0.051118,0.15702,0.057832
-0.0086976,-0.040436,0.0016785,-0.048981,0.02121,0.064546,0.10269,0.027924
0.023957,-0.072786,-0.0099184,-0.029145,0.051728,0.023041,0.051118,-0.0062562
0.020905,-0.092622,-0.061189,-0.079805,0.028229,0.027008,0.013886,-0.059358
0.050507,-0.13779,0.010529,-0.042573,0.015717,0.020294,-0.01236,-0.083772
0.084077,-0.15763,0.0038148,-0.032197,0.039826,0.00015259,-0.014496,-0.076753
0.04715,-0.12894,0.023346,-0.03769,0.067903,-0.010224,-0.018769,-0.090791
0.044404,-0.12863,-0.017548,-0.051728,0.043488,0.0206,0.027314,-0.06363
-0.0086976,-0.01297,-0.11276,-0.082551,0.036164,0.037995,0.10056,-0.060883
-0.055085,0.025483,-0.11948,-0.10239,0.031891,0.024872,0.069734,-0.057832
-0.10971,0.051118,-0.12833,-0.077058,0.0028992,0.024262,-0.0032044,-0.013275
-0.13382,0.092012,-0.10727,-0.040742,-0.024262,0.028534,-0.044709,0.026093
-0.091096,0.074617,-0.11978,-0.075532,0.0096132,-0.09781,-0.16648,0.077363
-0.075532,0.0071717,-0.058747,-0.14969,0.036774,-0.16464,-0.3035,0.10758
-0.035554,-0.14298,-0.0077821,-0.094759,-0.027314,0.057527,0.1326,0.12406
-0.024567,-0.17014,-0.11521,-0.11734,-0.050813,0.092317,0.28946,0.10452
-0.024262,-0.11887,-0.059968,-0.081025,-0.026703,0.027314,0.078584,0.091707
-0.00076295,-0.069429,-0.002594,-0.058747,-0.018158,-0.0096132,0.027619,0.069123
0.020905,-0.048371,-0.04593,-0.073396,0.011139,-0.0096132,-0.030671,0.019684
-0.012055,0.016327,-0.023957,-0.10575,0.027619,-0.013886,-0.11612,-0.022736
0.011749,-0.027619,-0.0065614,-0.050813,0.0074769,0.030976,0.0056458,-0.018158
0.023957,-0.042878,-0.023651,-0.030976,0.0080873,0.050813,0.090791,-0.025788
0.031891,-0.031891,-0.065156,-0.071565,0.042267,0.014191,0.017853,-0.083467
0.011444,-0.081941,-0.051118,-0.06424,0.041352,0.0080873,0.021515,-0.058747
0.005951,-0.10819,0.021515,-0.024262,0.02884,0.017243,0.024872,-0.035248
-0.0080873,-0.049592,-0.073091,-0.058442,0.05539,0.0044251,0.023651,-0.035248
-0.072786,0.017853,-0.094148,-0.12894,0.055085,-0.0013733,0.0056458,-0.022431
-0.11337,0.039521,-0.067292,-0.084382,0.0035096,0.0038148,0.014801,0.0019837
-0.1146,0.08011,-0.13626,-0.103,-0.023651,0.0090028,0.014801,0.049897
-0.085908,0.0972,-0.13931,-0.10483,-0.020905,0.0077821,0.011444,0.055695
-0.093843,0.060578,-0.092927,-0.065766,-0.027619,0.0038148,0.018769,0.075837
-0.061189,-0.002594,-0.042267,-0.079194,-0.026398,0.0028992,0.012665,0.059358
-0.058137,-0.013581,-0.08835,-0.10727,-0.015412,0.016022,0.02945,0.067903
-0.053559,-0.012055,-0.053864,-0.084993,-0.0083925,0.016022,0.019989,0.064546
-0.010224,-0.053559,-0.028534,-0.086519,-0.0053407,0.018463,0.0065614,0.045624
0.019074,-0.078279,-0.023041,-0.062409,0.0019837,0.013275,-0.0047303,0.016632
0.029755,-0.11246,-0.0053407,-0.056916,0.002594,0.030365,0.0032044,-0.02945
0.05417,-0.13016,-0.00015259,-0.072175,0.022736,0.037385,0.049287,-0.011139
0.069734,-0.1384,-0.015717,-0.048676,0.027314,0.021515,0.016938,-0.02945
0.042267,-0.12161,-0.016632,-0.027314,0.037079,0.014801,-0.028534,-0.089265
0.0096132,-0.10788,-0.025483,-0.050813,0.067597,0.00045777,-0.050507,-0.085603
-0.016632,-0.082246,-0.059052,-0.066682,0.094453,0.0010681,-0.036469,-0.052033
-0.016327,-0.0062562,-0.08835,-0.083162,0.093538,0.012055,0.010834,-0.035554
-0.059968,0.026703,-0.098421,-0.11734,0.070649,-0.0053407,0.027924,-0.02121
-0.084993,0.0071717,-0.085908,-0.056916,0.059663,-0.02884,0.029755,0.002594
-0.10697,0.052338,-0.11978,-0.10361,-0.034333,-0.011139,0.03006,0.058442
-0.12436,0.14206,-0.12772,-0.14694,-0.22599,0.024872,0.024262,0.10025
-0.10971,0.095979,-0.079194,-0.11521,-0.21073,0.035248,0.044404,0.11826
-0.089876,-0.0019837,-0.075837,-0.10056,-0.021515,0.023041,0.051423,0.13413
-0.067903,-0.057527,-0.094148,-0.076753,0.019684,0.025177,0.02945,0.10636
-0.039521,-0.094148,-0.031586,-0.068513,0.0028992,0.025483,0.018769,0.086519
-0.0028992,-0.083467,-0.020905,-0.047456,0.019074,0.023346,0.017548,0.066072
0.045624,-0.12955,0.0086976,-0.02945,0.033112,0.014801,0.0019837,0.019684
0.030365,-0.07187,-0.0041199,-0.055085,0.063935,0.0071717,-0.026703,-0.049287
0.043488,-0.07248,-0.005951,-0.041657,0.093538,-0.012055,0.00076295,-0.060883
0.079805,-0.084993,-0.084077,-0.053559,0.090791,-0.043183,0.002594,-0.059358
0.065461,-0.068513,-0.024872,-0.048981,0.096895,-0.06363,0.017243,-0.048371
0.059052,-0.13382,-0.0038148,-0.068818,0.11673,-0.091707,0.0080873,-0.04715
0.017548,-0.16098,-0.044709,-0.075532,0.013275,0.059358,-0.025483,-0.039826
-0.039826,-0.10239,-0.074006,-0.075837,-0.088045,0.18967,0.031891,-0.04715
-0.11032,0.033112,-0.12314,-0.10117,-0.023346,0.079194,0.041352,-0.030671
-0.14694,0.1033,-0.12253,-0.10666,-0.016632,0.014496,-0.0047303,-0.019074
-0.11978,0.10117,-0.084077,-0.099947,-0.04593,-0.011139,-0.0083925,-0.0022889
-0.10513,0.068513,-0.10361,-0.09659,-0.034638,-0.013581,0.00045777,0.035859
