-0.042878,-0.018769,-0.048371,-0.056306,0.022736,0.030976,-0.036469,0.060273
-0.035248,-0.049897,-0.013886,-0.069734,0.18021,-0.11337,-0.002594,0.08011
0.026093,-0.078584,-0.015412,-0.068208,0.02121,0.10056,0.066377,0.098726
0.039216,-0.1146,0.010529,-0.038605,-0.41062,0.12467,-0.022431,0.030365
0.03006,-0.1149,0.0019837,-0.039216,-0.47868,-0.040131,0.2211,0.0074769
0.031281,-0.11215,-0.0041199,-0.032502,0.13596,-0.2034,0.29435,-0.015717
0.048981,-0.13474,-0.024872,0.020905,0.67369,-0.081941,0.19516,-0.064851
0.02884,-0.081331,-0.050507,-0.091707,1.0259,0.31479,0.14694,-0.10849
-0.010834,-0.037995,-0.076143,-0.11368,-0.068818,0.35447,-0.57389,-0.12985
-0.033417,-0.0016785,-0.084382,-0.083772,-0.63645,-0.50095,-0.77165,-0.075227
-0.041352,-0.0077821,-0.088655,-0.10056,0.13199,-0.12772,0.24521,0.0080873
-0.056916,0.027924,-0.1146,-0.069734,0.016022,0.053254,0.1561,0.04715
-0.081636,0.051728,-0.12711,-0.12436,0.13169,-0.094759,0.013275,0.036774
-0.10697,0.08011,-0.11307,-0.15122,-0.25528,0.25681,-0.030671,0.07126
-0.092012,0.061799,-0.094453,-0.07126,-0.21012,-0.1384,0.032197,0.08957
-0.086824,0.014191,-0.063325,-0.056916,0.070344,-0.19181,0.11154,0.063325
-0.06302,-0.024262,-0.057832,-0.082246,0.019989,-0.082246,0.063935,-0.0028992
-0.036469,-0.030365,-0.044404,-0.090486,-0.0010681,-0.06363,0.026703,0.0099184
0.010529,-0.094453,-0.0053407,-0.025483,0.076753,0.24826,0.024262,0.056611
0.032807,-0.12772,0.0074769,-0.01297,0.17838,0.39109,0.11887,0.023651
0.038911,-0.11337,-0.002594,-0.0206,0.11093,0.049592,0.024872,-0.0047303
0.040131,-0.12589,0.017853,-0.0010681,-0.35355,0.22446,-0.00076295,-0.035859
0.050202,-0.13016,0.00076295,-0.22141,-0.50736,-0.026093,0.0074769,-0.045014
0.031891,-0.082551,-0.059968,-0.069123,0.27543,-0.37797,0.093843,-0.059663
0.012665,-0.067903,-0.074311,-0.062715,0.34195,-0.31937,0.034943,-0.052644
-0.01236,-0.042267,-0.064546,-0.082551,0.2623,-0.34562,-0.18723,-0.06302
-0.058747,-0.0096132,-0.077974,-0.082856,0.042878,0.08896,-0.18173,-0.054475
-0.081025,0.019379,-0.10605,-0.0795,-0.075532,0.23239,0.062104,0.039826
-0.077974,0.040436,-0.12161,-0.066682,-0.077363,0.53758,0.13321,0.09659
-0.065156,0.029755,-0.11215,-0.068818,0.23514,0.4387,0.12436,0.088655
-0.081025,0.042267,-0.099641,-0.11368,0.15396,0.11185,0.098421,0.048981
-0.078889,0.037079,-0.087434,-0.091402,-1.0069,-0.66178,-0.033722,0.060578
-0.057832,-0.0019837,-0.08011,-0.050507,-0.21927,-0.55955,0.031891,0.090791
-0.041352,-0.0016785,-0.058137,-0.12497,0.30747,0.13169,0.062409,0.092012
-0.02121,-0.045319,-0.0080873,-0.078584,0.13931,0.019074,-0.081025,0.026703
-0.016327,-0.063325,-0.002594,-0.098421,0.41459,-0.081941,-0.052949,-0.0028992
-0.013581,-0.090486,-0.012055,-0.087129,0.2623,0.015106,0.10666,0.03006
0.0074769,-0.11612,-0.0080873,-0.023651,-0.060883,0.10086,0.13169,0.029145
0.056611,-0.16587,0.031891,0.05417,-0.11765,0.21134,0.24338,-0.042878
0.03006,-0.13046,-0.0206,-0.02121,-0.77012,0.18631,-0.1677,-0.16953
-0.016938,-0.067597,-0.04654,-0.14603,-0.26383,-0.052033,-0.80461,-0.20737
-0.045624,-0.040742,-0.088655,-0.12497,0.78386,-0.033112,-0.12039,-0.030671
-0.024872,-0.034333,-0.063325,-0.066377,0.17685,0.032502,0.20035,0.059968
-0.025483,-0.022431,-0.089265,-0.020905,-0.10086,0.041352,0.13626,0.048066
-0.078279,0.056001,-0.10849,-0.08957,0.095369,0.077058,0.069429,0.015106
-0.091707,0.063325,-0.11063,-0.18479,-0.027619,0.103,0.066072,0.053864
-0.081636,0.073396,-0.13107,-0.097505,0.055695,0.29282,0.2092,0.11582
-0.052949,0.022126,-0.087129,-0.03769,0.28214,-0.054475,0.25162,0.11887
-0.066682,0.012665,-0.08835,-0.012055,0.12711,-0.35019,0.14481,0.057832
-0.052949,0.0083925,-0.08072,-0.16739,-0.11521,-0.0028992,0.19547,0.073701
-0.026703,-0.0028992,-0.04715,-0.13199,-0.12711,-0.43351,-0.0041199,0.072175
-0.0056458,-0.033722,-0.024567,-0.060578,-0.5098,0.28977,-0.49027,0.045319
0.034943,-0.11276,-0.0065614,-0.010224,-0.019684,0.15549,-0.24796,-0.0022889
0.047761,-0.12619,0.00045777,-0.040742,0.15824,-0.16495,0.12375,-0.08011
0.07126,-0.14603,0.0071717,-0.070344,-0.16892,0.016938,0.14694,-0.084077
0.06363,-0.11887,-0.0038148,-0.033417,0.12039,-0.14206,0.2501,-0.08896
0.033722,-0.10422,-0.0068666,-0.041047,0.20462,-0.019684,0.26993,-0.1445
-0.028534,-0.066682,-0.042573,-0.057527,-0.039826,0.42771,-0.1561,-0.14633
-0.057221,-0.023346,-0.067292,-0.065156,0.015106,0.04654,-0.93034,-0.11429
-0.074617,0.0032044,-0.090181,-0.10941,0.121,-0.098116,-0.25071,-0.01236
-0.10147,0.033112,-0.10971,-0.094453,0.0056458,0.14115,0.34531,0.069429
-0.10056,0.03006,-0.10422,-0.10361,0.013581,-0.021515,0.1387,0.11582
-0.09781,0.037385,-0.11368,-0.099947,0.0096132,-0.10208,0.082856,0.13657
-0.10422,0.058137,-0.11307,-0.12894,-0.023651,-0.040436,0.11307,0.16129
-0.085298,0.037995,-0.10849,-0.13596,-0.034943,0.062104,0.11521,0.14267
-0.069429,0.029755,-0.086213,-0.10483,-0.094148,0.058442,0.078279,0.14298
-0.033417,-0.022736,-0.044404,-0.059358,-0.24887,0.18692,0.057221,0.11826
0.0028992,-0.056306,-0.039216,-0.065156,-0.42252,0.50034,0.12772,0.11307
0.034028,-0.089876,-0.012665,-0.022736,-0.089265,0.20584,0.21134,0.066682
0.033417,-0.11368,0.028534,-0.033417,0.9221,-0.82872,0.085908,-0.10178
0.027619,-0.11582,-0.0074769,-0.05539,0.83726,-0.64134,-0.19089,-0.13138
0.029145,-0.11612,-0.00015259,-0.072175,-0.46098,0.77897,0.0090028,-0.092927
0.034333,-0.12284,-0.0013733,-0.064546,-0.30014,-0.019989,-0.10941,-0.13413
0.019379,-0.11093,-0.035554,-0.08896,-0.024567,-0.34073,-0.090791,-0.10208
0.0050355,-0.062715,-0.050202,-0.038605,-0.21714,0.078584,0.04593,-0.07187
0.0053407,-0.064546,-0.048066,0.033112,-0.28458,0.24796,0.09659,-0.045319
-0.020294,-0.0035096,-0.095369,-0.05417,0.38071,-0.058137,0.025483,-0.050507
-0.11002,0.062409,-0.10513,-0.15,0.54368,-0.015717,-0.15061,-0.036469
-0.10239,0.025483,-0.12436,-0.11246,0.30991,-0.16922,-0.017548,0.091402
-0.06302,0.034333,-0.13138,-0.16983,-0.30594,-0.19242,0.094148,0.13993
-0.076143,0.050202,-0.092622,-0.12741,-0.22019,0.18235,0.07187,0.09781
-0.10544,0.058747,-0.094148,-0.13321,-0.0035096,0.22629,0.017853,0.053864
-0.08896,0.056001,-0.086519,-0.057221,-0.070954,0.28305,0.049897,0.11246
-0.017548,-0.049592,-0.0062562,-0.034333,-0.28367,0.23575,0.11185,0.11887
0.023651,-0.068818,-0.044099,-0.025483,-0.11337,-0.4802,-0.0795,0.01297
-0.012055,-0.061494,-0.042573,-0.10727,0.39292,-0.25772,-0.12802,-0.056611
0.027314,-0.14389,0.023957,-0.083467,-0.11337,0.42039,0.016632,0.014191
0.034028,-0.1207,0.016327,-0.0050355,-0.0013733,-0.16403,-0.0053407,0.041657
0.035248,-0.10147,-0.010224,-0.053254,0.06424,-0.0038148,0.03769,0.043793
0.010834,-0.093843,-0.018158,-0.07248,0.13718,0.087739,0.06424,0.027008
0.010834,-0.086519,-0.020294,-0.037079,0.44877,0.22721,0.081331,-0.018463
0.0016785,-0.078584,-0.056611,-0.016327,0.38193,0.2388,0.083467,-0.027008
-0.042878,-0.011749,-0.10483,-0.1387,0.11826,-0.042267,0.060273,-0.039826
-0.044709,0.0035096,-0.090486,-0.082856,-0.82963,-0.47013,0.0071717,-0.034333
-0.048981,0.031891,-0.12741,-0.094759,-0.7274,0.15396,0.039826,-0.0010681
-0.082246,0.045319,-0.11734,-0.0972,0.31724,0.34897,-0.062715,-0.038605
-0.087129,0.048371,-0.11307,-0.11765,-0.38804,0.42557,0.019074,0.0096132
-0.070039,0.060273,-0.10971,-0.10452,-0.014801,-0.57237,-0.011139,0.049897
-0.097505,0.073396,-0.093233,-0.13382,0.28794,-0.7332,-0.053864,-0.0053407
-0.06363,-0.034943,-0.027008,-0.052644,0.098421,-0.14847,-0.049592,-0.041047
-0.04715,-0.04593,-0.048981,-0.030976,0.073701,0.52537,0.14786,-0.018463
-0.029145,-0.043488,-0.030365,-0.095064,0.059663,0.35264,-0.21408,0.027924
-0.00015259,-0.084077,-0.00076295,-0.051423,0.1326,0.35996,-0.16281,0.052338
0.021515,-0.11215,-0.0090028,-0.040742,0.18235,-0.23087,0.070649,0.018158
0.051423,-0.12772,-0.0019837,-0.016022,0.077363,-0.13565,0.047761,-0.00076295
0.044404,-0.12192,-0.0047303,-0.05478,-0.13107,-0.5864,0.04715,-0.037385
0.03006,-0.12741,-0.01297,-0.11063,-0.44633,-0.28794,0.033417,-0.071565
0.026703,-0.097505,-0.032807,-0.027008,-0.086213,0.28153,0.014191,-0.025483
-0.0047303,-0.048371,-0.070039,-0.079194,0.15885,0.062409,-0.072175,-0.030365
-0.027619,-0.0016785,-0.093233,-0.095674,0.54337,0.089265,-0.04715,-0.022126
-0.037079,0.024567,-0.094148,-0.053559,0.094453,0.026093,0.059663,0.029755
-0.090181,0.066072,-0.12314,-0.1149,-0.1387,-0.034028,0.045014,0.041962
-0.079194,0.042573,-0.08835,-0.082856,-0.010224,0.016327,0.045624,0.036164
-0.051728,-0.00076295,-0.11246,-0.043183,-0.04654,0.034028,0.041962,0.033417
-0.070954,0.033112,-0.10452,-0.12192,0.012665,0.16129,-0.014496,0.022736
-0.12253,0.085908,-0.091402,-0.16495,-0.026703,0.0083925,0.015412,0.046845
-0.065766,0.00045777,-0.042267,-0.13321,-0.064851,0.023041,0.13504,0.13107
-0.00045777,-0.078584,-0.013581,-0.054475,-0.07187,0.10483,0.14908,0.121
-0.0044251,-0.061799,-0.027008,-0.056611,-0.02121,0.069123,0.20706,0.051423
0.0086976,-0.08011,-0.0022889,-0.083467,0.043183,0.0383,0.095979,-0.033112
0.015717,-0.12985,0.021515,-0.014496,0.049592,-0.035554,0.10758,-0.051423
0.016632,-0.14786,0.032807,-0.010224,0.070649,-0.073091,0.082856,-0.018158
0.0019837,-0.062409,-0.067903,-0.098726,0.12863,0.59831,-0.62058,-0.021515
0.0074769,-0.070039,-0.053254,-0.072786,0.005951,0.5684,-0.37003,-0.022126
0.035554,-0.10788,-0.023957,-0.013275,0.28611,-0.75944,0.34073,-0.010529
0.00076295,-0.069429,-0.061189,-0.035554,0.45182,-0.75547,-0.028534,-0.099641
-0.040742,-0.015412,-0.10361,-0.14572,-0.27726,0.15946,-0.10208,-0.077363
-0.079194,0.040742,-0.12253,-0.15702,-0.31754,0.53178,-0.17014,0.0053407
-0.10391,0.059968,-0.11093,-0.072175,-0.41703,0.21347,0.103,0.064546
-0.08957,0.044099,-0.11612,-0.066987,-0.55314,0.17014,0.42924,0.16068
-0.089265,0.057527,-0.10086,-0.12192,0.067597,-0.20829,0.22385,0.14786
-0.052644,0.044404,-0.088655,-0.10636,0.43778,-0.43198,0.11704,0.090486
-0.041657,0.013886,-0.082246,-0.077363,0.0080873,0.0795,-0.37003,0.072786
-0.019684,-0.024262,-0.035554,-0.056916,-0.11154,-0.037995,-0.44236,-0.019074
-0.0041199,-0.068208,-0.021515,-0.069123,-0.013275,-0.08957,-0.11246,-0.029145
-0.0090028,-0.08011,-0.0038148,-0.081025,0.52995,0.076753,-0.010834,-0.014801
0.0016785,-0.11002,0.00045777,-0.050507,0.32334,0.17411,0.20584,0.022126
0.023651,-0.1384,-0.012055,-0.056916,-0.56565,0.21927,0.20066,0.023651
0.040436,-0.1265,-0.0083925,0.011444,-0.374,0.068513,-0.037385,-0.081025
0.048371,-0.11978,-0.015412,-0.021515,0.21836,-0.1442,-0.11032,-0.13138
0.02182,-0.082246,-0.043793,-0.069123,0.34897,-0.0972,0.04593,-0.12039
-0.0053407,-0.068513,-0.064546,-0.050507,0.20462,0.011139,0.074006,-0.068818
-0.017548,-0.053864,-0.048676,-0.063325,0.12863,0.024567,0.050202,-0.040436
-0.038911,0.010224,-0.103,-0.078584,0.012055,0.041657,0.051423,-0.022126
-0.077058,0.08011,-0.14145,-0.063325,0.011749,-0.018769,0.048371,0.018158
-0.082246,0.052338,-0.093538,-0.2034,-0.12802,0.12741,0.011749,0.057527
-0.10544,0.042573,-0.098421,-0.10117,-0.18021,-0.028229,-0.033722,0.069123
-0.12985,0.074617,-0.12558,-0.12741,-0.0206,-0.083772,0.094453,0.089876
-0.082246,0.018463,-0.077058,-0.10391,-0.19364,0.18326,0.25742,0.12467
-0.048371,0.00045777,-0.06424,-0.048371,0.04715,-0.011444,0.15305,0.11826
-0.050813,-0.013581,-0.060578,-0.089265,0.47013,-0.11368,0.011139,0.062409
-0.053254,-0.044099,-0.014801,-0.0795,-0.18235,0.79149,0.15702,0.035248
0.0047303,-0.095674,-0.0077821,-0.010529,-0.86046,-0.15915,-0.0028992,0.075532
0.0065614,-0.10971,0.0099184,-0.052949,0.37217,-1.187,-0.56138,0.0041199
0.0065614,-0.093843,-0.012665,-0.15671,0.62638,-0.081941,-0.15763,0.005951
0.051118,-0.12345,-0.017853,-0.052949,-0.095064,0.4329,0.31998,0.032807
0.085908,-0.15366,-0.005951,0.00045777,0.026703,-0.10788,0.071565,-0.029755
0.0383,-0.07248,-0.037995,-0.081025,-0.017548,0.037079,-0.01297,-0.055085
-0.018158,-0.038911,-0.06302,-0.069734,-0.040436,0.50156,-0.0062562,-0.032807
-0.036774,-0.042573,-0.074311,-0.0096132,0.095369,0.0038148,-0.099336,-0.075837
-0.053254,0.021515,-0.1091,-0.058442,0.27909,-0.30686,-0.009308,-0.011139
-0.040436,0.03006,-0.13718,-0.14176,0.027619,-0.0050355,-0.00045777,0.027619
-0.042878,0.017243,-0.1265,-0.15091,-0.35386,0.16098,-0.065766,-0.0083925
-0.074922,0.014496,-0.099641,-0.10636,-0.40482,0.26352,0.0028992,-0.014191
-0.08896,0.033722,-0.066987,-0.046235,-0.079805,-0.013581,0.24765,0.041657
-0.090791,0.048066,-0.074922,-0.103,0.1387,-0.057832,0.27054,0.049592
-0.086213,0.011444,-0.06424,-0.11276,0.06363,0.0062562,0.10239,0.059968
-0.060578,-0.01297,-0.039216,-0.084993,0.027619,0.18387,0.20523,0.059358
-0.013275,-0.066377,-0.0099184,-0.060883,-0.00076295,0.20554,0.012665,0.053254
0.019989,-0.1146,-0.0047303,-0.07126,-0.084077,0.070649,-0.45396,-0.044404
0.06424,-0.12894,0.0035096,-0.024567,0.00045777,-0.28275,-0.44633,-0.10544
0.056611,-0.10391,-0.013886,-0.023651,0.31754,-0.4622,-0.18509,-0.075532
0.0038148,-0.10544,-0.013581,-0.044404,0.079194,0.10971,0.064546,-0.0065614
0.011139,-0.10605,-0.017548,-0.052644,-0.12131,0.049287,0.073701,-0.0080873
0.005951,-0.067597,-0.052033,-0.060578,0.095979,0.052338,0.10269,-0.014496
-0.0056458,-0.050507,-0.075837,-0.06363,-0.041352,0.05539,0.086824,-0.0032044
-0.067903,-0.00015259,-0.10544,-0.094759,-0.022126,-0.025177,0.027008,-0.030671
-0.081025,0.04654,-0.11276,-0.078279,0.12222,-0.0099184,0.019379,-0.027314
-0.085908,0.032197,-0.10422,-0.103,-0.08957,0.050507,0.04593,0.023651
-0.11795,0.069123,-0.11032,-0.13474,0.16342,0.062409,0.0032044,0.050507
-0.079194,0.022126,-0.08072,-0.036164,0.41733,0.0022889,0.01297,0.10849
-0.089876,0.058747,-0.11521,-0.13596,0.084688,-0.037995,0.11276,0.099031
-0.059358,-0.0044251,-0.045014,-0.1091,-0.12345,-0.05417,-0.023346,0.094759
-0.024262,-0.03006,-0.063935,-0.092317,0.22995,-0.18906,0.032197,0.1146
0.027619,-0.070039,-0.00015259,-0.068208,-0.19974,-0.2443,0.07126,0.06424
0.041047,-0.090791,-0.0013733,-0.044099,-0.30167,0.1265,-0.05539,0.017853
0.012665,-0.092317,-0.0096132,-0.02945,-0.82444,0.68956,0.031281,-0.027619
0.00045777,-0.086519,-0.01297,-0.03769,-0.5153,0.67216,0.20188,-0.0068666
0.033417,-0.10971,0.009308,-0.062409,0.40818,0.44938,0.2327,-0.019379
0.04593,-0.14359,0.005951,-0.1207,0.017243,-0.21592,0.025177,-0.050507
0.021515,-0.090181,-0.059968,-0.042573,0.019684,-1.0863,-0.37675,-0.10117
-0.026703,-0.013581,-0.086213,-0.09781,0.53391,-1.0008,-0.23453,-0.11643
-0.021515,-0.056611,-0.028534,-0.020905,0.28397,0.009308,0.039216,-0.045014
-0.0083925,-0.034638,-0.10971,-0.059663,0.027008,0.39841,0.10269,-0.0041199
-0.086213,0.076448,-0.14633,-0.19364,0.10819,-0.022736,-0.15274,-0.033112
-0.12222,0.10239,-0.11734,-0.086519,-0.04593,0.084688,-0.067903,0.063935
-0.083467,-0.0022889,-0.070344,0.036164,-0.089876,0.11398,0.10819,0.1265
-0.048676,0.015717,-0.10117,-0.090486,-0.0096132,0.074922,0.12924,0.11032
-0.065156,0.056001,-0.12863,-0.2208,0.018769,0.068513,0.19028,0.08011
-0.039216,-0.01297,-0.04654,-0.079805,-0.065156,0.10056,0.18387,0.035248
-0.0090028,-0.078279,0.0053407,0.0099184,-0.03769,0.01236,0.19028,0.044404
-0.0050355,-0.052644,-0.045624,-0.070649,0.040436,-0.20218,-0.017548,-0.0065614
0.022736,-0.06363,-0.022736,-0.14542,-0.053559,-0.17594,-0.44938,-0.043183
0.038911,-0.11734,0.0080873,-0.092927,-0.19516,0.39506,-0.28061,-0.038911
0.019074,-0.12619,0.002594,-0.027314,0.34226,0.13535,-0.010224,-0.092012
-0.0028992,-0.10391,-0.027924,-0.060273,0.28305,0.072175,0.14481,-0.061189
0.0065614,-0.11063,-0.010529,0.0016785,-0.47532,0.52171,0.24094,-0.022736
-0.031281,-0.066682,-0.034028,-0.039216,-0.084077,0.43503,0.10483,-0.044709
-0.026398,-0.040436,-0.078889,-0.059663,0.063935,0.051728,-0.078279,-0.015717
-0.042573,-0.030976,-0.085908,-0.10239,0.48295,-0.84245,-0.09781,0.029145
-0.0795,0.021515,-0.11368,-0.070649,0.49027,-0.34562,0.023346,0.035554
-0.10636,0.077363,-0.12222,-0.18296,-0.37522,0.51438,0.098726,0.034028
-0.083772,0.041657,-0.11124,-0.065766,-0.46036,-0.18662,-0.051118,0.048371
-0.059358,0.023651,-0.11887,-0.046235,-0.14206,0.10239,-0.077668,0.082856
-0.077058,0.022126,-0.078584,-0.086519,0.44877,-0.013275,0.0047303,0.039826
-0.093538,0.046235,-0.077058,-0.10758,0.27604,-0.065156,0.088045,0.066072
-0.067903,-0.0016785,-0.047761,-0.12741,0.028229,-0.51774,0.17411,0.121
-0.015412,-0.046845,-0.027924,-0.039216,0.40848,-0.079194,0.1677,0.13382
0.029145,-0.083467,-0.022431,-0.023651,0.14725,0.28,0.025177,0.057832
0.044404,-0.099641,-0.0022889,-0.093538,-0.78538,0.37919,-0.14817,-0.040742
0.051728,-0.11551,-0.0068666,-0.052644,-0.8809,-0.28489,-0.2208,-0.057221
0.068513,-0.11887,0.021515,-0.041352,0.28733,-0.29099,-0.058137,-0.070649
0.041962,-0.11765,-0.016632,-0.015412,0.21134,0.11337,0.052033,-0.05478
0.018769,-0.087739,-0.034638,-0.060273,0.10575,0.034943,0.11643,-0.024872
-0.018463,-0.048066,-0.052644,-0.10269,0.13657,0.17044,0.12497,0.0086976
-0.050813,-0.034943,-0.081331,-0.074617,0.10544,0.19364,0.12039,-0.016327
-0.073091,0.0056458,-0.11429,-0.10117,0.017243,0.23178,0.29252,0.013886
-0.090181,0.022736,-0.10117,-0.086519,-0.073091,0.034333,0.25834,0.053864
-0.10178,0.027314,-0.10849,-0.044099,-0.14633,-0.39445,-0.30411,0.034028
-0.092927,0.052644,-0.12161,-0.094759,0.036774,0.11917,0.15091,0.036164
-0.050507,0.022736,-0.094759,-0.11093,-0.35996,0.099336,0.14267,0.031281
-0.045624,0.011444,-0.084993,-0.13901,0.21592,-0.49027,-0.99687,-0.049897
-0.052949,0.019684,-0.077058,-0.089265,0.74723,-0.45182,-0.32517,-0.05539
-0.043183,-0.010834,-0.038911,-0.05539,-0.59129,0.92943,0.41306,0.046235
-0.009308,-0.044099,-0.016022,-0.043488,-0.21195,0.13535,-0.11917,0.061189
-0.0050355,-0.05417,-0.0053407,-0.092927,0.58396,-0.22354,-0.25101,0.033722
0.045624,-0.13413,0.018158,-0.060883,-0.096895,0.14481,0.15274,0.0080873
0.045319,-0.12772,-0.0044251,-0.05539,-0.14054,0.022126,0.15671,-0.028534
0.059052,-0.11948,-0.010224,-0.047761,0.091707,-0.00015259,0.066072,-0.063325
0.035554,-0.10941,-0.026093,-0.045624,0.053254,-0.098116,0.070344,-0.066072
0.039521,-0.10269,-0.030976,-0.06302,0.10819,-0.070649,0.060273,-0.026703
0.00076295,-0.058137,-0.072175,-0.082246,0.29007,0.14206,0.082551,-0.02121
-0.030976,-0.022431,-0.072786,-0.067597,0.13382,0.5684,0.1442,-0.014496
-0.034638,-0.022126,-0.11612,-0.0090028,-0.053559,0.12863,0.10788,0.013275
-0.061494,0.037385,-0.11124,-0.081331,-0.14847,-0.67582,-0.17044,-0.030671
-0.086824,0.048066,-0.11521,-0.1799,-0.22232,0.041047,-0.10056,-0.032502
-0.10025,0.052644,-0.12894,-0.094453,-0.3389,0.027008,0.037385,0.027619
-0.1268,0.0795,-0.1146,-0.13107,-0.015106,-0.2797,-0.038605,0.094148
-0.10636,0.043793,-0.058747,-0.10697,-0.050507,-0.059052,0.052338,0.13321
-0.081941,0.011139,-0.066682,-0.099031,-0.1146,0.24033,0.11856,0.11612
-0.055695,-0.033417,-0.034028,-0.029145,-0.023346,0.012665,0.063325,0.076753
-0.0056458,-0.065766,-0.031586,-0.034943,0.076448,-0.15488,0.081636,0.091402
0.030976,-0.11765,-0.00015259,-0.093538,0.21347,0.1973,0.027008,0.070344
0.048371,-0.1268,0.010224,-0.044099,0.39597,0.12314,-0.082856,-0.020294
0.050202,-0.13291,-0.0056458,-0.10239,-0.077363,0.069429,0.025483,-0.023651
0.012665,-0.090181,-0.0062562,-0.057221,-0.081636,0.053254,0.11002,-0.061189
0.032807,-0.11734,-0.0099184,-0.027008,-0.11093,0.16495,0.10575,-0.079805
0.02121,-0.088045,-0.052033,-0.047456,0.21714,-0.09659,0.0074769,-0.10819
-0.038605,-0.038911,-0.070954,-0.089265,0.61418,-0.47105,-0.17563,-0.15213
-0.050813,-0.0068666,-0.092927,-0.052644,0.02121,0.14267,-0.10513,-0.0062562
-0.067903,0.039521,-0.10056,-0.11032,-0.40665,0.10178,-0.08011,0.0028992
-0.083772,0.056001,-0.11368,-0.08957,-0.45914,-0.11032,-0.061189,0.0065614
-0.084077,0.051118,-0.10422,-0.11032,-0.030976,0.083162,0.083772,0.086824
-0.056916,-0.0035096,-0.084688,-0.068208,0.090791,-0.0053407,0.076448,0.103
-0.083772,0.076448,-0.12528,-0.13718,-0.0062562,-0.15976,0.035248,0.076143
-0.059968,0.015412,-0.063935,-0.048676,0.025483,-0.075227,0.056306,0.094148
0.0056458,-0.091707,-0.019989,0.014801,-0.059968,0.44083,0.071565,0.088045
-0.016632,-0.0047303,-0.078279,-0.087129,-0.070954,0.16281,-0.0062562,0.029755
-0.023346,-0.048066,-0.0065614,-0.060883,0.032807,-0.26658,-0.048676,0.010529
0.026093,-0.12375,0.017853,-0.1561,0.0065614,0.13687,0.082551,0.037079
-0.0013733,-0.095369,0.0035096,-0.15091,0.42893,0.2388,0.087739,-0.023346
0.015106,-0.12192,0.0080873,0.087434,0.11765,0.43473,0.10544,-0.0083925
-0.0041199,-0.062104,-0.058137,-0.042573,-0.24369,0.28061,0.26444,-0.0090028
0.015717,-0.079805,-0.036774,-0.14939,0.54215,-1.0906,-0.23117,-0.11734
0.081636,-0.1854,0.0062562,-0.060883,-0.45457,-0.41276,-0.43137,-0.049897
0.026703,-0.083467,-0.070954,0.019989,-0.79789,0.74723,-0.11856,-0.053254
-0.040742,0.012665,-0.11276,-0.14694,0.094453,-0.016938,0.12863,-0.10117
-0.074922,0.043183,-0.11734,-0.10269,0.44907,0.15305,0.088655,-0.081941
-0.070954,0.061799,-0.1268,-0.074922,0.37919,0.13687,0.10147,0.012665
-0.067597,0.058137,-0.11734,-0.058747,0.2977,0.048981,-0.06363,0.043793
-0.085298,0.069429,-0.099641,-0.15854,-0.34012,-0.18845,-0.16403,0.066072
-0.092927,0.043488,-0.0795,-0.10361,0.022736,-0.75822,0.016632,0.088655
-0.103,0.030671,-0.074922,-0.069429,-0.0083925,0.22416,0.022126,0.12253
-0.076753,-0.03006,-0.057832,-0.082551,-0.047761,0.29068,-0.15885,0.13169
-0.033417,-0.047456,-0.024872,-0.018769,0.023651,0.1503,0.12802,0.052033
-0.0022889,-0.088045,-0.0083925,-0.056916,-0.093843,0.24216,0.18692,-0.0044251
0.017853,-0.11673,0.00015259,-0.103,-0.13321,-0.28855,0.080415,-0.086824
0.0047303,-0.10697,-0.0044251,-0.034333,-0.087739,0.15976,0.083772,-0.090181
0.02182,-0.10666,-0.01297,-0.057221,0.41489,-0.17197,-0.051728,-0.028229
0.04593,-0.1146,-0.016632,-0.069429,0.13016,-0.04654,-0.0206,-0.020294
0.049287,-0.10819,-0.02884,-0.044099,-0.12406,0.14725,-0.0053407,0.019989
0.010834,-0.042878,-0.056306,-0.095369,0.068513,-0.74144,-0.075227,0.013275
0.0050355,-0.046235,-0.067292,-0.032502,-0.11612,0.03006,0.20798,0.033417
-0.043488,0.016022,-0.10147,-0.14054,-0.049287,0.26169,0.13596,0.011444
-0.078889,0.062104,-0.12711,-0.11887,0.32883,0.11185,-0.053254,-0.00015259
-0.070649,0.044099,-0.099336,-0.058442,-0.070039,0.1326,-0.083772,0.025788
-0.086213,0.028229,-0.10605,-0.087739,-0.091096,-0.15,-0.11215,0.03006
-0.085603,0.049592,-0.10361,-0.085908,0.21042,-0.017548,0.025788,0.045014
-0.075227,0.045624,-0.10727,-0.06424,0.25895,0.098726,-0.057832,0.027619
-0.061189,-0.0047303,-0.019684,-0.093233,-0.036469,0.32578,-0.095979,0.041352
-0.061799,-0.085908,-0.0068666,-0.016632,-0.47105,0.14969,0.061189,0.086519
-0.037385,-0.04654,-0.060883,-0.1033,-0.55619,0.11124,0.20737,0.073701
0.0065614,-0.072175,-0.039216,-0.11582,-0.23148,0.17594,0.24918,0.034943
0.034943,-0.12406,0.013581,-0.048371,0.2623,0.41245,0.28855,0.027924
0.02945,-0.1326,0.00076295,-0.052949,0.2742,0.0044251,-0.12039,-0.048371
0.037079,-0.10575,-0.020905,-0.063325,0.092317,-0.17594,-0.33799,-0.067597
0.027008,-0.098116,-0.027924,-0.050202,-0.053864,-0.77012,-0.2327,-0.11246
0.024262,-0.10269,-0.022126,-0.027314,0.12406,-0.41855,-0.081331,-0.12619
-0.018158,-0.039521,-0.088045,-0.087739,-0.22751,0.49088,0.078279,-0.084382
-0.02884,-0.023651,-0.076143,-0.095064,-0.65446,0.64012,0.16709,-0.028229
-0.04593,0.0010681,-0.10117,-0.069429,-0.075532,0.8217,0.29374,0.055085
-0.099031,0.058137,-0.11887,-0.12161,0.90196,0.025483,0.1149,0.010529
-0.10452,0.074311,-0.12284,-0.10361,0.57603,0.57877,0.26658,0.092317
-0.054475,0.016327,-0.10422,-0.042267,0.34195,0.044099,0.093843,0.16617
-0.064851,0.05539,-0.096284,-0.10697,0.60227,-1.4687,-0.96178,0.039216
-0.087434,0.04593,-0.097505,-0.12039,-0.39078,-1.6506,-0.6276,-0.019684
-0.084382,0.0035096,-0.047761,-0.099947,-1.2712,0.76097,0.33494,0.094453
-0.081025,-0.02182,-0.032197,-0.11917,0.19333,0.36515,0.20493,0.12985
-0.066072,-0.050507,-0.010834,-0.10788,0.20066,-0.17105,0.13046,0.13993
-0.020905,-0.087434,0.009308,-0.072175,-0.37613,1.0747,0.34104,0.13443
0.10483,-0.2208,0.042267,0.19272,-0.63981,0.98039,0.35111,0.084382
0.081636,-0.16648,-0.014801,-0.032807,0.078584,0.10605,0.095674,-0.1326
0.002594,-0.052338,-0.059052,-0.19669,1.0259,-0.18479,-0.074617,-0.22324
-0.0035096,-0.05417,-0.043183,-0.085298,0.68467,-0.6154,-0.168,-0.11215
0.039521,-0.10086,-0.018463,0.027008,-0.3563,-1.115,-0.014191,-0.12375
0.010529,-0.056611,-0.068208,-0.071565,0.11826,-0.005951,0.13443,-0.073701
-0.010529,-0.0206,-0.10422,-0.12741,0.48112,0.18387,0.13046,-0.038911
-0.066072,0.019684,-0.099641,-0.14389,-0.2031,-0.0028992,0.062104,-0.036774
-0.11826,0.057832,-0.094759,-0.075532,-0.168,0.39536,0.29068,0.0035096
-0.088045,0.078279,-0.12314,-0.057221,-0.10117,0.22049,0.056001,0.049592
-0.070039,0.041657,-0.1091,-0.071565,0.0383,0.005951,-0.39628,0.078584
-0.043488,0.0032044,-0.098726,-0.1149,-0.10636,-0.077974,-1.1476,0.041352
-0.070039,0.020294,-0.072786,-0.14267,-0.055695,-0.58701,-0.65507,-0.0065614
-0.068818,0.0019837,-0.047761,-0.095064,-0.029755,0.21927,0.33921,0.07187
-0.022126,-0.060883,-0.040131,-0.066377,-0.11307,0.54978,0.51255,0.13046
0.031586,-0.11032,0.0071717,-0.048676,-0.06302,0.30381,0.28244,0.10788
0.04715,-0.11734,0.002594,-0.11673,0.049592,-0.36545,0.14206,0.059358
0.046235,-0.11978,0.002594,-0.049592,0.12894,-1.108,0.0090028,-0.060883
0.041352,-0.11246,-0.0062562,-0.0080873,0.040131,0.26413,0.053254,-0.068818
0.022736,-0.10544,-0.0080873,-0.050813,0.020905,0.29892,-0.19913,-0.048676
0.011139,-0.08072,-0.023651,-0.05417,-0.00076295,0.061494,0.13504,-0.041352
0.010834,-0.059358,-0.060883,-0.068513,-0.095674,0.13199,0.093843,-0.029145
-0.0053407,-0.039521,-0.075837,-0.053559,-0.060578,0.12009,-0.17594,-0.044709
-0.041352,0.0019837,-0.098726,-0.079194,0.31601,0.042878,-0.07187,-0.05539
-0.070039,0.040436,-0.11154,-0.093843,0.17319,0.14084,0.34134,0.02121
-0.081331,0.044404,-0.11429,-0.091402,-0.18601,0.015106,0.38712,0.086824
-0.087739,0.05539,-0.12619,-0.11704,0.25315,-0.099641,0.2327,0.09781
-0.088045,0.035554,-0.10208,-0.046235,-0.23453,0.10361,0.034333,0.059358
-0.0972,0.032197,-0.10758,-0.16556,-0.24033,0.18997,-0.46494,0.043793
-0.076753,0.022736,-0.073396,-0.074922,0.04593,-0.17044,-0.49607,0.011139
-0.034943,-0.048066,-0.021515,-0.0071717,-0.26566,0.034638,0.077668,-0.031281
0.0016785,-0.074922,-0.024567,-0.11521,-0.28794,0.13107,0.12924,0.005951
-0.0062562,-0.076753,-0.0074769,-0.09781,0.18296,-0.093843,0.06424,-0.014191
-0.0041199,-0.091402,0.002594,-0.070649,0.074617,-0.010224,0.092927,-0.015106
0.018769,-0.11398,-0.0090028,-0.035554,0.068513,-0.0028992,0.086213,0.015717
0.027924,-0.11246,-0.012055,-0.039216,0.1445,-0.091707,0.064546,0.022126
0.070344,-0.13199,0.010529,-0.064851,0.31724,-0.21714,0.034028,0.017548
0.042878,-0.089876,-0.066682,-0.060578,-0.002594,0.14786,0.0041199,0.015717
-0.02884,-0.018769,-0.064851,-0.01236,-0.076753,0.16739,-0.0053407,-0.010224
-0.047761,-0.039521,-0.056611,-0.078584,-0.26078,0.32181,0.014801,-0.067903
-0.070039,0.01236,-0.11276,-0.16709,-0.40421,0.43137,0.23636,-0.010224
-0.0972,0.024262,-0.12039,-0.083467,0.023041,0.18418,0.35416,0.048066
-0.11032,0.041657,-0.10513,-0.046235,0.39109,-0.23056,0.22812,0.089265
-0.08011,0.056001,-0.10483,-0.18967,0.21683,-0.086213,0.041352,0.090791
-0.095064,0.054475,-0.09659,-0.11276,-0.041352,-0.21897,-0.65934,-0.0041199
-0.083162,0.030671,-0.076143,-0.02121,0.093233,-1.223,-0.93492,-0.026703
-0.045014,-0.0056458,-0.0795,-0.11337,0.0077821,0.024872,0.18143,0.049592
-0.023041,-0.034638,-0.05417,-0.096284,-0.097505,0.37278,0.24796,0.069123
-0.0047303,-0.084382,-0.0099184,-0.022736,-0.064851,0.081025,0.12894,0.055085
0.019074,-0.10239,0.00045777,-0.050202,-0.014496,0.1149,0.2089,0.047456
0.024872,-0.090486,-0.0044251,-0.082246,-0.0071717,0.082246,0.14054,-0.00076295
0.049287,-0.15,0.026398,-0.025483,0.026093,0.10605,0.11215,-0.039826
0.06363,-0.1207,-0.041962,-0.059663,0.12833,0.35477,0.18235,-0.014496
0.042878,-0.10056,-0.026703,-0.082246,0.057832,0.35935,0.0050355,-0.061189
0.041657,-0.10483,-0.0383,-0.060578,-0.030671,0.24552,0.06363,-0.059358
-0.010834,-0.045624,-0.077058,-0.037385,-0.18814,-0.28977,0.031281,-0.089265
-0.035248,0.014496,-0.098421,-0.0041199,-0.32212,-0.26871,-0.34257,-0.11002
-0.062715,-0.0080873,-0.076143,-0.051728,0.084077,-0.14359,-0.21195,-0.066072
-0.12589,0.06424,-0.13138,-0.16892,0.44694,-1.021,-0.24063,-0.052033
-0.13657,0.10422,-0.13443,-0.21927,0.17502,0.0028992,0.0099184,0.09781
-0.085603,0.040742,-0.092012,-0.057221,-0.030671,0.40909,0.11154,0.15854
-0.077363,0.025177,-0.090486,0.034943,0.12589,0.2153,0.077974,0.11154
-0.054475,0.014191,-0.069123,-0.14298,0.23331,0.47807,0.15885,0.091402
-0.033112,-0.019989,-0.050507,-0.22538,-0.34714,0.13748,-0.1146,0.11002
-0.044404,-0.049897,-0.020294,-0.030976,-0.3444,-0.48295,-0.066682,0.038911
-0.0062562,-0.090791,-0.0022889,-0.013275,-0.50858,-0.47349,0.075532,0.031891
0.023651,-0.10086,0.00045777,-0.058137,0.15946,-0.18723,-0.041047,-0.010834
0.020294,-0.12192,-0.0016785,-0.0383,0.63157,-0.16068,-0.016938,-0.068208
0.044404,-0.13993,0.0083925,-0.0032044,-0.0972,0.31968,0.1384,-0.085298
0.0035096,-0.082246,-0.042267,-0.10666,0.11093,0.19089,0.072175,-0.12863
0.0086976,-0.066377,-0.030976,-0.093538,0.094759,0.069734,0.069734,-0.039826
0.027314,-0.13138,-0.02884,0.036774,0.0099184,0.0010681,0.069734,0.0068666
0.036164,-0.069429,-0.08835,-0.083467,0.0074769,0.35386,0.030365,-0.018769
-0.021515,0.043183,-0.12772,-0.20066,-0.056916,0.55253,0.023651,-0.023651
-0.03769,0.033722,-0.11032,-0.041047,0.074006,-0.036469,0.086824,0.035859
-0.086213,0.051118,-0.12039,-0.070649,-0.11643,0.02945,0.023651,0.02182
-0.13626,0.095674,-0.13565,-0.16129,-0.43412,-0.83909,-0.22141,0.0050355
-0.11002,0.045624,-0.087129,-0.11337,-0.12192,-0.50431,-0.12589,0.052033
-0.11551,0.016632,-0.074311,-0.06424,0.17227,1.1186,0.17044,0.1323
-0.073396,-0.02182,-0.04715,-0.020905,-0.11154,0.8101,0.12528,0.14939
-0.04593,-0.040131,-0.050507,-0.12985,-0.27634,-0.28153,0.12833,0.072786
-0.020905,-0.066072,-0.036774,-0.065766,-0.015412,-1.1565,0.040436,-0.0022889
-0.009308,-0.05539,-0.0041199,-0.094453,0.7396,-0.43015,-0.059052,-0.010224
0.033722,-0.11856,0.0077821,-0.05478,0.2031,0.67063,0.054475,0.037995
0.051423,-0.16068,0.026703,0.025483,-0.72953,0.4445,0.29679,0.051118
0.041047,-0.11032,-0.0206,-0.023041,-0.098421,-0.25834,0.19638,-0.051118
0.015717,-0.090791,-0.029145,-0.073701,0.48783,-0.082246,0.16159,-0.066072
0.017853,-0.0795,-0.040742,-0.090486,0.24918,0.23575,-0.23148,-0.069123
-0.010224,-0.054475,-0.060273,-0.046235,0.48539,-0.95537,-1.1736,-0.1326
-0.070649,0.018463,-0.10513,-0.11551,0.15335,0.0013733,0.01297,-0.033722
-0.053864,0.015412,-0.099336,-0.12711,-0.17685,0.32792,0.35752,0.087739
-0.033417,0.017243,-0.12222,-0.048981,-0.13565,0.077363,0.06424,0.060273
-0.073701,0.044099,-0.1207,-0.10788,-0.081636,0.074311,0.093843,0.030365
-0.076753,0.027924,-0.091096,-0.103,-0.053254,0.034638,0.076448,0.057221
-0.075227,0.03006,-0.090791,-0.10971,-0.092012,0.074311,0.068208,0.048371
-0.060883,0.031891,-0.10422,-0.082246,-0.067292,-0.065766,0.015717,0.03006
-0.039216,-0.011749,-0.059052,-0.098421,0.043488,-0.2034,-0.023651,0.031891
-0.042878,-0.032197,-0.039826,-0.090486,0.053864,0.028229,-0.024872,-0.002594
-0.0044251,-0.07187,-0.0044251,-0.034638,-0.26169,0.57603,0.17136,0.016938
0.016632,-0.094148,0.0041199,-0.05539,0.02182,0.011139,0.12863,0.025177
0.041657,-0.11734,0.0071717,-0.03769,0.2388,-0.16281,0.084382,0.0013733
0.038911,-0.14054,0.0019837,-0.033417,0.15335,0.08072,0.12192,-0.022431
0.046235,-0.12833,-0.0044251,-0.032502,0.23087,-0.033112,-0.024262,-0.036469
0.02182,-0.093843,-0.028229,-0.057527,-0.16281,-0.14298,-0.50004,-0.039216
-0.0065614,-0.051728,-0.050202,-0.10269,-0.3798,-0.02884,-0.24521,-0.059052
-0.0096132,-0.052949,-0.06302,-0.05539,-0.103,0.2504,0.35294,-0.020294
-0.032502,0.0065614,-0.097505,-0.072175,0.20523,-0.12802,0.35325,0.019074
-0.057832,0.034333,-0.1265,-0.052949,0.1149,-0.093843,0.17533,0.014801
-0.070649,0.010529,-0.088045,0.042878,-0.19608,0.24063,-0.060883,-0.0056458
-0.098421,0.049287,-0.14176,-0.28794,-0.22049,0.12375,-0.62516,-0.057221
-0.1503,0.094453,-0.12985,-0.24552,0.048371,-0.060578,0.040131,0.002594
-0.1323,0.081636,-0.11734,-0.12924,-0.0019837,0.013886,0.37003,0.094453
-0.092317,0.03769,-0.052644,0.0044251,-0.019684,0.027924,-0.14328,0.092927
-0.0383,-0.098116,0.009308,0.06363,0.0077821,-0.070344,-0.29557,0.048066
0.0096132,-0.087434,-0.034333,-0.15122,0.066682,-0.14511,0.11246,0.020905
0.039521,-0.073701,-0.032502,-0.11185,0.076753,-0.023346,0.080415,0.05539
0.019074,-0.10208,0.00076295,-0.091096,0.027619,0.34195,0.23514,0.016632
0.026703,-0.13046,0.030365,-0.028534,0.10208,0.044709,0.34531,0.044099
0.025788,-0.11063,-0.013886,0.077058,0.28367,0.037385,0.2858,0.034028
0.015717,-0.088045,-0.020905,-0.087739,0.56626,0.43992,0.2742,-0.053864
0.035554,-0.10086,-0.036774,-0.094759,0.12802,0.51225,-0.33158,-0.056001
0.0071717,-0.044099,-0.090791,-0.11337,-0.69932,0.1387,-0.83085,-0.058747
0.019379,-0.074617,-0.052033,0.020905,-0.87724,-1.198,-0.27573,-0.10025
-0.026398,0.017243,-0.094453,-0.12497,0.37217,-0.87694,0.10758,-0.057832
-0.08957,0.065766,-0.10849,-0.14206,1.1812,-0.12894,0.017243,-0.023041
-0.11765,0.085298,-0.14054,-0.091707,-0.18204,0.94957,0.24979,0.077974
-0.12741,0.065156,-0.11246,-0.10758,-1.2688,0.27878,-0.0050355,0.12619
-0.096284,0.0096132,-0.091402,-0.11551,0.57572,-0.91081,-0.042878,0.13718
-0.11368,0.040131,-0.098116,-0.13474,0.30381,0.23941,0.24399,0.13779
-0.089265,0.025177,-0.066682,-0.060578,-0.12955,0.74327,0.099031,0.11002
-0.066682,-0.023346,-0.034028,-0.020294,0.033112,0.50767,0.10788,0.10239
0.0013733,-0.090486,-0.005951,-0.052644,0.025788,0.19333,0.19242,0.10422
0.019684,-0.08896,-0.0083925,-0.093843,0.17899,-1.1226,-0.053254,0.013581
0.047456,-0.1268,-0.0019837,-0.052644,0.28916,-0.55741,0.022736,-0.061189
0.069429,-0.15671,0.0099184,-0.032807,0.12253,0.53239,0.047456,-0.093843
0.03769,-0.13352,-0.016632,-0.023651,-0.45151,0.047456,-0.26383,-0.15152
0.0090028,-0.076753,-0.010224,-0.079805,0.036774,0.10483,-0.08896,-0.10147
0.016938,-0.084993,-0.032502,-0.056916,0.30808,0.25528,0.16953,-0.04715
0.034028,-0.060578,-0.066377,-0.04715,0.022736,0.47929,0.086213,-0.049897
0.017243,-0.019684,-0.0972,-0.052949,-0.053559,0.47257,-0.031891,-0.074922
-0.0080873,-0.0044251,-0.10483,-0.082246,-0.35416,-0.097505,-0.18387,-0.10513
-0.062104,0.037995,-0.12039,-0.10361,0.20432,-1.3875,-0.25193,-0.064546
-0.091402,0.06363,-0.10819,-0.088655,-0.17655,0.062715,0.16709,0.066377
-0.11398,0.058137,-0.10025,-0.15671,-0.18692,0.23117,0.20768,0.1146
-0.10056,0.039216,-0.09659,-0.096284,-0.022431,-0.073091,0.15854,0.12985
-0.1033,0.043793,-0.084688,-0.072175,-0.036469,0.17197,0.11765,0.079194
-0.082856,-0.014496,-0.032807,-0.074311,0.51713,-0.14511,-0.17075,0.054475
-0.059663,-0.024567,-0.052338,-0.10178,0.09659,-0.031586,-0.053254,0.13291
-0.037079,-0.069429,-0.018769,-0.087739,-0.15061,0.4622,0.19059,0.11826
-0.009308,-0.094148,-0.0041199,-0.067292,-0.14969,1.0869,0.13779,0.059358
0.030976,-0.11612,0.0035096,-0.066377,-0.54551,0.24674,0.020294,0.033417
0.043793,-0.1207,-0.0090028,-0.034638,-0.094759,-0.9749,-0.12467,-0.059358
0.044099,-0.12345,-0.0035096,-0.028534,0.40452,-0.20737,-0.087434,-0.11704
0.054475,-0.13077,-0.014801,-0.020294,0.20951,0.20737,-0.12802,-0.099947
0.033722,-0.077974,-0.066377,-0.050507,0.54215,-0.11795,0.035859,-0.076143
0.012665,-0.031586,-0.085908,-0.077668,0.51408,0.12161,0.16892,-0.044404
-0.023651,-0.005951,-0.077974,-0.10636,-0.19364,0.27573,0.13199,-0.029755
-0.056611,0.042267,-0.097505,-0.12131,-0.1738,0.048981,-0.035859,-0.017548
-0.066682,0.042573,-0.12558,-0.10727,-0.07187,-0.59525,-0.3151,0.009308
-0.079194,0.044099,-0.12619,-0.078279,-0.064546,-0.57481,-0.18173,0.017548
-0.083162,0.055695,-0.10452,-0.086824,-0.18875,0.3151,0.12985,0.043793
-0.065461,0.025788,-0.077974,-0.086824,-0.13016,0.14603,0.091402,0.087739
-0.060883,-0.017853,-0.053254,-0.082246,0.26383,-0.030365,0.013581,0.090181
-0.074617,0.014496,-0.060883,-0.12161,-0.034943,0.050507,0.061494,0.055085
-0.065156,-0.032197,-0.030365,-0.10391,-0.26169,0.12528,0.060578,0.027008
-0.028229,-0.078584,0.0013733,-0.059052,-0.0047303,0.067292,0.06302,0.052033
0.0090028,-0.12772,0.015412,0.016632,-0.027619,0.060883,0.066377,0.039521
0.02121,-0.11185,-0.019989,-0.05539,0.014191,0.039216,0.065766,0.0086976
0.035859,-0.11185,-0.0090028,-0.097505,0.069123,0.20371,0.089876,-0.029755
0.02884,-0.12375,0.0016785,-0.040742,0.11612,0.19425,-0.01236,0.0016785
0.037995,-0.11978,-0.027924,-0.025177,-0.1503,0.30961,-0.096284,0.0035096
0.009308,-0.087434,-0.04654,-0.038605,-0.14237,0.35935,-0.034943,-0.02884
-0.051118,0.016022,-0.098116,-0.16739,0.26322,-0.87694,-0.16831,-0.095979
-0.090791,0.062409,-0.11765,-0.10575,0.31846,-0.68711,0.012665,-0.01297
-0.050507,0.01236,-0.091096,0.0044251,-0.23758,-0.41062,0.14694,0.074617
-0.056916,0.022126,-0.12619,-0.11551,-0.1146,0.51225,0.050202,-0.0013733
-0.066987,0.049897,-0.11948,-0.13474,-0.098116,0.68009,-0.0050355,0.0041199
-0.06363,0.027314,-0.067903,-0.087129,0.059052,-0.17014,0.17563,0.057221
-0.064546,0.018463,-0.12039,-0.10666,0.28733,0.17533,0.20584,0.082246
-0.059663,0.028229,-0.075837,-0.096284,-0.13962,0.33829,0.060578,0.099031
-0.044404,-0.0074769,-0.030976,-0.023041,-0.034943,-0.30869,-0.10727,0.053864
0.0016785,-0.10391,0.018769,-0.1207,-0.439,-0.52903,-0.077363,0.053559
0.0035096,-0.093538,-0.039216,-0.1387,-0.0071717,-0.085908,-0.29221,0.019379
0.026093,-0.1088,-0.002594,-0.031586,0.28305,0.06302,-0.18204,-0.016327
0.042267,-0.10697,-0.0019837,-0.064851,0.063935,0.25528,0.18357,-0.023041
0.057221,-0.11826,-0.012665,-0.057221,0.17075,0.038911,0.1091,-0.060578
0.041962,-0.094453,-0.03006,-0.046235,-0.043488,0.039216,-0.023346,-0.082246
0.033112,-0.11795,-0.022736,-0.011139,-0.29526,0.082856,0.009308,-0.064546
0.0099184,-0.061494,-0.066682,-0.042878,0.19364,-0.068513,-0.17288,-0.085298
-0.038605,0.002594,-0.096284,-0.10269,0.1265,-0.091707,-0.018463,-0.094453
-0.052033,0.013886,-0.092622,-0.081331,0.0090028,-0.034028,0.24765,-0.039521
-0.085603,0.037385,-0.11856,-0.10941,0.024262,-0.13199,-0.13321,-0.010529
-0.10056,0.048371,-0.1207,-0.094759,0.019989,0.30564,0.12802,0.053254
-0.12222,0.060273,-0.10697,-0.10941,-0.059663,0.82353,0.08072,0.096895
-0.10208,0.039826,-0.08896,-0.070649,-0.065461,0.37736,-0.15763,0.14633
-0.091707,0.030671,-0.075837,-0.081331,-0.045014,-0.63859,0.10086,0.16312
-0.074006,0.022126,-0.067903,-0.073701,0.069734,-0.88396,-0.15427,0.082246
-0.075532,0.013886,-0.039216,-0.083162,0.29831,-0.42557,0.033112,0.031891
0.024872,-0.13291,0.030365,-0.0068666,0.35569,0.22782,0.22934,0.06302
0.053254,-0.16159,-0.016327,-0.087434,0.15427,0.18845,0.034943,-0.00015259
0.023651,-0.10391,-0.018463,-0.11154,-0.65507,0.15579,-0.13443,-0.055695
0.024872,-0.086519,-0.00045777,-0.11337,-0.56168,-0.13657,-0.013581,-0.025483
0.033722,-0.11032,-0.023957,-0.030976,-0.24247,0.31388,0.079805,-0.0074769
0.048981,-0.12375,-0.0019837,0.0074769,-0.039216,0.24857,0.059968,-0.029755
0.02121,-0.12619,-0.030671,-0.053254,0.4506,-0.4332,-0.00076295,-0.10727
-0.0096132,-0.014496,-0.094148,-0.072175,0.40513,-0.52995,-0.06302,-0.098421
-0.048371,0.036469,-0.10849,-0.11521,0.080415,0.072175,0.0080873,-0.052033
-0.052033,0.012055,-0.099031,-0.059052,0.050507,0.3267,0.20798,0.020905
-0.068818,0.043183,-0.1149,-0.1207,-0.075532,0.16403,0.28367,0.046235
-0.091096,0.065461,-0.13382,-0.11032,0.051118,-0.025483,0.32914,0.049897
-0.066072,0.033722,-0.10422,-0.072786,0.075227,0.098726,0.22873,0.06424
-0.067597,0.0013733,-0.092927,-0.079194,-0.038911,0.075532,-0.60655,-0.023041
-0.08957,0.042573,-0.092012,-0.12314,-0.23911,0.082246,-0.74876,-0.009308
-0.057832,-0.0086976,-0.034943,-0.069123,-0.36759,0.18448,-0.051118,0.16709
-0.041657,-0.038605,-0.018769,-0.052644,0.027619,0.045014,-0.010834,0.1503
-0.026703,-0.086213,0.017548,-0.0383,0.40543,-0.48508,0.15091,0.085908
0.050507,-0.13382,-0.00015259,-0.078584,0.5275,-0.68376,0.021515,0.026093
0.0383,-0.10239,-0.022736,-0.07248,-0.53971,0.48631,0.16831,0.015717
0.037995,-0.12345,-0.016022,-0.049287,-0.027008,0.21744,0.10422,-0.032807
0.012055,-0.087739,-0.013886,-0.051118,0.15091,-0.036469,0.053559,-0.071565
-0.015412,-0.098116,-0.00045777,-0.057527,-0.075532,0.089876,0.041047,-0.11795
-0.034638,-0.074006,-0.056916,-0.040436,-0.33036,0.0206,0.11521,-0.082856
-0.022126,-0.017548,-0.12131,-0.13107,-0.13443,-0.059968,0.15122,0.0010681
-0.045624,0.010529,-0.11673,-0.070344,0.50156,0.26413,0.078279,0.013886
-0.092012,0.069734,-0.11978,-0.066682,0.39902,0.3212,0.0086976,-0.021515
-0.10025,0.056001,-0.094148,-0.14084,0.39139,-0.2916,-0.13748,-0.027314
-0.11307,0.071565,-0.10239,-0.14298,-0.34379,-0.13413,-0.22049,-0.020294
-0.078279,0.052338,-0.083162,-0.05539,-0.40787,-0.44999,-0.025177,0.035554
-0.06302,0.030365,-0.086213,-0.11551,0.6099,-0.27695,0.09659,0.067292
-0.026398,-0.026703,-0.049287,-0.065766,-0.31388,0.80766,0.052338,0.056611
-0.030365,-0.039521,-0.055695,-0.082246,-0.5153,0.44205,0.10605,0.11856
0.014801,-0.072175,-0.022431,-0.086824,-0.27543,0.061189,0.065766,0.08011
0.053864,-0.12497,0.0056458,-0.022736,0.26749,0.025483,0.08011,0.055085
0.063325,-0.13352,0.0019837,-0.031281,0.4152,-0.17929,0.06363,-0.0022889
0.053864,-0.13169,-0.0013733,-0.068208,-0.077974,-0.26322,-0.053559,-0.051118
0.058137,-0.11765,-0.005951,-0.039521,0.059663,0.50645,-0.040742,-0.039826
0.06363,-0.1149,-0.013886,0.026093,0.040436,0.21347,0.086213,-0.025788
0.031281,-0.085908,-0.044404,-0.085603,0.45396,-1.0243,-0.066072,-0.092317
-0.015717,-0.043488,-0.067903,-0.085908,0.40269,-0.74266,-0.16098,-0.12467
-0.051423,0.0044251,-0.10269,-0.076448,-0.83207,0.24887,-0.16587,-0.039521
-0.093843,0.051118,-0.10452,-0.15457,-0.22232,0.25986,-0.12039,-0.030976
-0.075227,0.035554,-0.12039,-0.11521,0.09781,0.11124,0.04654,0.076448
-0.092012,0.061799,-0.12894,-0.13779,-0.030976,0.13809,0.13504,0.13016
-0.090791,0.027619,-0.094148,-0.051728,0.033417,-0.077974,0.042267,0.12924
-0.092012,0.013581,-0.072175,-0.032197,0.083162,-0.11093,-0.0053407,0.10086
-0.11246,0.040742,-0.091402,-0.076753,0.32242,-0.11368,-0.002594,0.033417
-0.093843,0.015106,-0.059968,-0.08957,-0.12222,0.67033,0.10239,0.052338
-0.094453,-0.0053407,-0.056001,-0.073701,-0.21073,0.54826,0.25284,0.08011
-0.036469,-0.049592,-0.0080873,-0.12955,-0.047761,-0.74937,-0.026703,0.056611
0.02884,-0.11887,0.011749,-0.11093,-0.081636,-0.26505,0.011444,0.033417
0.037385,-0.15244,0.0053407,-0.044099,0.26596,0.56809,0.11917,0.00045777
0.051728,-0.1326,-0.00045777,-0.0090028,0.3267,0.14694,0.012665,-0.019684
0.071565,-0.11032,-0.0062562,-0.035248,0.21042,-0.14664,-0.043793,-0.059358
0.039826,-0.078584,-0.020905,-0.073091,-0.37766,0.095979,0.02121,-0.096895
0.0056458,-0.077363,-0.061189,-0.093233,-0.59159,0.090791,0.27115,-0.044404
0.0065614,-0.099947,-0.042573,-0.072175,0.055695,0.18967,0.39292,0.010834
-0.0083925,0.010224,-0.12985,-0.063325,0.24582,0.77958,0.37888,0.014191
-0.048981,0.05539,-0.11246,-0.091096,-0.030365,1.0143,0.29953,-0.01236
-0.028534,0.0083925,-0.086824,-0.064851,-0.081025,0.42557,-0.38499,-0.06302
-0.041962,0.030671,-0.11978,-0.078279,0.17563,-0.91142,-1.6124,-0.015717
-0.091402,0.078279,-0.11673,-0.14878,0.14481,-2.1178,-0.61479,-0.066682
-0.094453,0.050202,-0.090181,-0.11521,-0.16983,-0.073396,0.33677,0.044099
-0.086213,0.021515,-0.077974,-0.13321,-0.033112,0.69902,0.074006,0.07248
-0.06363,-0.026703,-0.032502,-0.056611,-0.022126,0.0065614,0.059358,0.057832
-0.033112,-0.047456,-0.035554,-0.065156,0.0047303,0.10513,0.27512,0.035859
-0.022736,-0.066987,-0.010529,-0.048981,0.024262,0.11765,0.27878,0.055695
0.021515,-0.10269,0.015717,-0.0010681,0.052338,0.077363,-0.015106,0.073396
0.02182,-0.095674,0.005951,-0.022736,0.060273,0.07126,0.019379,0.019684
0.016632,-0.092317,-0.011749,-0.059052,0.046235,0.063325,0.070039,-0.034943
0.023346,-0.17411,-0.0077821,-0.082551,0.030976,0.056611,0.055695,-0.074617
0.026093,-0.11551,-0.050507,-0.16464,0.045319,-0.013581,0.076143,-0.057832
-0.0047303,-0.050507,-0.054475,-0.038911,-0.10147,-0.019989,0.06424,-0.037079
-0.034943,-0.019684,-0.092622,-0.052338,-0.20096,0.11734,0.019684,-0.026703
-0.05478,0.0013733,-0.077974,-0.085603,0.24338,-0.054475,-0.077974,0.03006
-0.083162,0.056611,-0.11154,-0.07126,0.58122,0.069734,-0.05539,0.049592
-0.086213,0.073396,-0.15854,-0.13138,0.078584,0.26017,0.18173,0.06302
-0.069123,0.029145,-0.11337,-0.077363,0.15915,0.0083925,0.13382,0.037995
-0.066072,0.027619,-0.085908,-0.12528,-0.31937,0.20432,0.013886,0.024872
-0.070649,0.035248,-0.093233,-0.07126,-0.74723,0.040131,-0.084382,0.041657
-0.048371,0.0016785,-0.061799,-0.09659,-0.168,-0.33555,-0.060883,0.068513
-0.025177,-0.045624,-0.042573,-0.060273,0.26535,-0.19394,0.094759,0.10788
-0.0053407,-0.08072,-0.020294,-0.051118,-0.098421,0.014496,0.12894,0.061494
0.020294,-0.10605,0.013886,-0.073091,0.009308,0.01236,0.082246,0.010529
0.02121,-0.10147,0.0016785,-0.05417,0.39475,-0.009308,0.076448,-0.056916
0.040436,-0.11765,-0.00045777,-0.010529,0.036164,0.064546,0.12772,-0.056001
0.043183,-0.12497,-0.010529,-0.025483,-0.087129,-0.059663,-0.31724,-0.034333
0.018769,-0.094453,-0.019074,-0.08957,0.11643,-0.1619,-0.38254,-0.051728
0.014801,-0.075837,-0.050507,-0.060883,-0.49454,0.28672,0.11154,-0.0080873
-0.014191,-0.036164,-0.074006,-0.038605,-0.076143,0.18997,0.037995,-0.030671
-0.011139,-0.046845,-0.078889,-0.17411,0.43626,0.098726,-0.17777,-0.043793
-0.023651,-0.0016785,-0.092317,-0.0047303,0.23392,-0.059968,-0.077363,-0.041657
-0.073701,0.062104,-0.11673,-0.084993,0.52811,-0.51652,0.1326,-0.00076295
-0.08957,0.070039,-0.13291,-0.15488,-0.11093,-0.54276,0.17746,0.005951
-0.10544,0.059358,-0.092927,-0.10361,-0.50492,0.52628,0.22995,0.019684
-0.087434,0.026093,-0.090181,-0.049592,0.016938,0.21805,0.29374,0.074311
-0.11795,0.049592,-0.099641,-0.13535,0.1268,0.11704,-0.088045,0.10208
-0.10056,0.0096132,-0.035554,-0.14572,-0.045319,0.17105,-0.08835,0.11246
-0.043793,-0.046235,-0.019684,-0.035248,-0.12924,-0.21469,-0.24857,0.11887
0.009308,-0.081941,-0.018769,-0.020294,-0.12345,-0.0019837,-0.25681,0.048981
0.015412,-0.091402,-0.0080873,-0.055085,-0.055085,0.020294,0.084077,0.018769
0.026093,-0.096895,-0.0035096,-0.04715,0.10178,-0.21897,0.06302,0.010529
0.051423,-0.13199,0.0038148,-0.11917,0.062104,0.041352,0.081331,0.026703
0.060273,-0.11215,-0.016938,-0.075532,0.043793,-0.1323,0.061799,-0.012665
0.039521,-0.10208,-0.014496,-0.050813,-0.056611,-0.052949,0.093843,-0.06302
0.024262,-0.086213,-0.030976,0.030671,-0.087739,0.016327,0.066377,-0.10025
-0.0047303,-0.090181,-0.048676,-0.030365,0.23941,-0.029755,-0.10391,-0.12345
-0.086213,0.040131,-0.12375,-0.1561,0.24277,0.53422,-0.0019837,-0.081331
-0.099641,0.057527,-0.12161,-0.11063,-0.48569,0.86625,0.10239,0.0016785
-0.069734,0.005951,-0.10208,-0.055695,-0.16953,0.1799,0.24613,0.12924
-0.067292,0.028229,-0.11734,-0.055695,0.34714,-1.2386,0.076753,0.074006
-0.053559,0.077668,-0.13077,-0.16251,0.38437,-0.82109,0.10544,0.027314
-0.033722,0.012665,-0.075227,-0.14389,-0.27451,0.60075,0.065156,0.052949
-0.031891,-0.021515,-0.074617,-0.053254,-0.17777,0.054475,-0.72984,0.0096132
-0.022431,-0.023957,-0.056306,-0.05478,0.19974,-0.14786,-0.61509,-0.040436
-0.047761,-0.032502,-0.023651,-0.068513,-0.051728,0.11521,0.26352,0.015717
-0.038605,-0.050202,-0.0038148,-0.076448,0.067903,0.29374,0.16129,0.02884
-0.0010681,-0.15427,0.033417,0.018463,-0.020294,-0.041352,0.10636,0.026093
0.024262,-0.12467,-0.016327,-0.077058,0.11856,-0.11643,0.053864,0.028229
0.035248,-0.10605,-0.021515,-0.043488,0.16861,-0.060273,0.061799,0.010529
0.030976,-0.10208,-0.034028,-0.016632,0.073091,0.002594,0.052949,-0.054475
0.022126,-0.092622,-0.027008,-0.092317,-0.077363,0.19608,0.041657,-0.087129
-0.024262,-0.029755,-0.059968,-0.11246,-0.29801,0.22599,-0.010224,-0.060578
-0.048676,-0.01297,-0.073396,-0.090791,-0.057527,-0.0056458,0.0096132,-0.0206
-0.062104,0.0047303,-0.094148,-0.10697,0.11551,0.099031,0.11856,0.013275
-0.083162,0.0022889,-0.09659,-0.024872,0.2092,0.11002,0.24186,0.025483
-0.087129,0.068208,-0.1564,-0.095674,0.14176,-0.020905,0.17319,0.013581
-0.093538,0.062409,-0.1091,-0.18082,-0.38743,0.17044,-0.12924,-0.028534
-0.095064,0.066072,-0.10056,-0.13596,-0.4918,-0.23239,-0.33158,0.07248
-0.094453,0.044099,-0.08011,-0.075837,0.34226,-0.42374,0.073701,0.1207
-0.041047,-0.025788,-0.055085,-0.040742,0.099947,-0.092012,0.08957,0.11643
-0.064851,-0.037385,-0.038911,-0.092622,0.025177,-0.01297,0.03006,0.059968
-0.048676,-0.036164,-0.023041,-0.121,-0.10208,0.52049,0.093843,0.045624
0.0090028,-0.10758,0.0044251,-0.078279,0.019989,0.28916,0.082856,0.092317
0.03006,-0.11337,-0.0028992,-0.010224,-0.027619,0.33188,0.063935,0.086519
0.074311,-0.11978,-0.0038148,0.010834,-0.16587,0.2565,0.0096132,0.06302
0.070649,-0.13382,-0.0035096,-0.062715,0.35996,-0.52659,-0.085603,0.0035096
0.07187,-0.14786,-0.012055,-0.045624,0.19577,-0.89403,-0.059052,-0.10208
0.04715,-0.094148,-0.04715,-0.061799,0.094453,0.045624,-0.039521,-0.14633
0.0047303,-0.045319,-0.066682,-0.073091,0.049897,0.011444,-0.063935,-0.11917
-0.012665,-0.024872,-0.094759,-0.030976,-0.15091,-0.20676,-0.099031,-0.099641
-0.032502,0.025483,-0.10025,-0.044404,0.10025,0.039216,0.02884,-0.053559
-0.06363,0.07248,-0.11032,-0.18021,-0.048371,0.03006,0.13779,-0.015717
-0.066987,0.033417,-0.094453,-0.11673,-0.18662,0.037385,0.15335,-0.015106
-0.10849,0.052033,-0.11124,-0.088655,0.027924,-0.031586,0.16892,0.02884
-0.12222,0.074006,-0.10239,-0.11063,-0.11704,-0.03769,0.11429,0.057832
-0.10178,0.039521,-0.094148,-0.093843,-0.10697,0.065766,-0.0383,0.082856
-0.068208,-0.00045777,-0.046845,-0.099641,0.39231,0.3386,-0.20737,0.14389
-0.041352,-0.046235,-0.038605,-0.040742,0.51957,0.25071,-0.16403,0.13077
0.013275,-0.10544,-0.0022889,0.0096132,-0.49271,0.26352,-0.076143,0.074311
0.018769,-0.10391,0.01236,-0.080415,0.0013733,-0.46799,-0.16556,-0.098421
0.0050355,-0.090791,-0.017548,-0.07248,-0.28916,-0.62852,-0.19669,-0.13748
0.028229,-0.13596,0.0044251,-0.065766,-0.05478,0.23545,0.066377,-0.048981
0.032807,-0.1146,-0.024872,-0.099641,0.18906,0.12131,0.0013733,-0.025483
0.04715,-0.11887,-0.01236,-0.01236,-0.33219,0.17716,0.13169,-0.0028992
0.035248,-0.078584,-0.038911,0.02121,0.11826,0.02945,0.1149,-0.0074769
-0.014801,-0.020294,-0.081025,-0.083772,0.21256,0.0062562,0.049897,-0.020905
-0.044404,-0.016632,-0.087434,-0.12467,0.078279,0.0068666,0.035859,-0.01297
-0.067903,0.015412,-0.10483,-0.11795,-0.01236,-0.07187,0.027619,0.011749
-0.066072,0.025788,-0.11673,-0.081636,-0.27878,-0.11246,0.00076295,0.024262
-0.095674,0.061494,-0.12894,-0.099031,-0.11154,0.25956,0.032807,0.062409
-0.11124,0.063935,-0.12528,-0.1384,0.39322,0.61387,0.0013733,0.079805
-0.075837,0.023651,-0.096284,-0.11368,0.09659,0.026093,-0.021515,0.073701
-0.079805,0.029755,-0.07248,-0.099336,-0.025177,-0.51896,0.052338,0.069734
-0.081331,0.031281,-0.052033,-0.12741,0.23575,-0.73411,0.042878,0.070344
-0.013275,-0.11215,0.01236,0.07187,0.011749,0.16709,-0.0086976,0.10483
0.041657,-0.095369,-0.03006,-0.0090028,0.14328,0.32059,0.083772,0.073701
0.033722,-0.081331,-0.0041199,-0.1207,0.08072,0.73716,0.14389,-0.033722
0.059358,-0.14572,0.020905,-0.11978,0.12863,0.62028,0.15,-0.052949
0.055085,-0.14939,0.00045777,0.0099184,-0.40604,0.095064,0.14542,-0.10147
0.049287,-0.12558,-0.026398,-0.037079,-1.0402,-0.93523,-0.064546,-0.13626
-0.0065614,-0.071565,-0.036469,-0.12375,0.37186,-1.1638,-0.040436,-0.11398
-0.050813,-0.012055,-0.070344,-0.11734,0.60288,0.21958,0.014801,-0.042573
-0.015717,-0.026093,-0.072175,-0.0096132,-0.10361,0.87266,-0.32761,0.035859
-0.060578,0.017548,-0.11612,-0.045624,0.25376,0.3682,-0.32914,-0.014801
-0.12192,0.05539,-0.11887,-0.10575,0.73045,-0.9926,-0.16983,-0.044709
-0.077668,0.02182,-0.087129,-0.085298,-0.011444,-0.81224,0.17472,0.072786
-0.089876,0.083772,-0.13931,-0.14328,-0.79149,0.71366,0.25895,0.098116
-0.095979,0.049897,-0.068208,-0.10391,-0.35142,-0.079805,0.16007,0.084382
-0.071565,-0.0047303,-0.10697,-0.074617,0.085908,0.058747,0.062104,0.1146
-0.060578,-0.0035096,-0.086824,-0.14481,-0.086824,0.69322,-0.36912,0.069123
-0.055085,-0.023346,-0.022126,-0.069123,-0.20523,0.1033,-0.0068666,0.037079
-0.031281,-0.047761,-0.0096132,-0.024262,-0.11246,-0.10605,0.15305,0.047761
-0.0019837,-0.094148,-0.0080873,-0.047761,0.16678,0.20981,0.082246,0.077974
-0.0041199,-0.10056,-0.01297,-0.084382,0.19059,0.32273,0.11673,0.059358
0.044404,-0.12772,-0.0044251,-0.029145,-0.094148,0.13687,0.098116,0.0206
0.064546,-0.12192,-0.0090028,-0.059663,0.51804,-0.62242,-0.093233,-0.039826
0.046235,-0.10208,-0.023957,-0.027008,0.83268,-0.69505,-0.15824,-0.10422
0.04715,-0.10971,-0.024567,-0.048371,-0.39384,0.7512,0.095674,-0.081636
0.018158,-0.050202,-0.076753,-0.029145,-0.47745,0.38865,0.039826,-0.10147
-0.051423,-0.0013733,-0.087434,-0.045319,0.07248,-0.12741,0.086824,-0.073701
-0.036469,0.0038148,-0.093538,-0.19516,0.043183,-0.017548,0.18723,-0.01236
-0.067597,0.048676,-0.14847,-0.13107,0.070649,-0.085298,-0.0022889,-0.022431
-0.062104,0.040131,-0.11215,-0.081025,0.015412,-0.0035096,0.042267,0.025177
-0.081636,0.053254,-0.11093,-0.081636,-0.0071717,-0.0090028,-0.06363,0.050202
-0.076753,0.044099,-0.10849,-0.10727,-0.023041,-0.093538,-0.24063,0.038911
-0.067292,0.031281,-0.078279,-0.14145,-0.10178,-0.027008,0.06302,0.11307
-0.051423,-0.0086976,-0.042878,-0.091402,-0.034943,0.016938,0.17563,0.11002
-0.0065614,-0.056001,-0.037995,-0.046235,-0.039216,0.19394,0.24521,0.081636
0.02121,-0.10025,0.0086976,-0.033112,-0.077974,0.1088,0.24521,0.046235
0.057221,-0.11673,0.013581,-0.046235,-0.066682,-0.13993,0.086824,-0.021515
0.060273,-0.12039,-0.023651,-0.067597,0.20645,-0.24491,-0.31113,-0.069429
0.042267,-0.12284,-0.0047303,-0.041047,0.3093,0.082551,-0.61906,-0.11643
0.019074,-0.11948,-0.00076295,-0.018769,0.48203,0.044099,-0.64378,-0.14206
-0.028229,-0.074617,-0.023651,-0.082551,0.23331,0.29465,0.17929,-0.066072
-0.036469,-0.081331,-0.055085,-0.069734,-0.90013,0.65904,0.22171,-0.0056458
-0.053864,-0.050813,-0.078584,-0.063325,-0.49271,-0.62303,-0.093233,0.031891
-0.094453,0.019989,-0.10086,-0.12436,0.013886,-0.63584,0.034943,0.035554
-0.10758,0.044099,-0.11368,-0.15183,-0.071565,0.22385,0.19364,0.079194
-0.095674,0.041962,-0.10422,-0.071565,-0.096895,0.010834,0.30808,0.091707
-0.1091,0.058442,-0.11276,-0.046845,0.43473,-0.032197,0.20279,0.027008
-0.099031,0.04654,-0.10117,-0.13657,0.31327,0.0022889,-0.049287,0.046235
-0.0795,0.058442,-0.10086,-0.1207,-0.014801,0.27024,-0.024262,0.08011
-0.05478,0.022736,-0.074311,-0.10697,-0.2092,0.22232,0.023041,0.06302
-0.029145,-0.032807,-0.035554,-0.065156,0.030976,0.29374,0.063935,0.078584
-0.019379,-0.066987,-0.027924,-0.059052,0.17716,0.1268,0.15061,0.070039
0.015412,-0.083467,-0.0068666,-0.030365,-0.27787,0.02884,0.18296,0.015717
0.047456,-0.098421,0.017243,-0.044709,-0.058747,-0.71977,-0.15152,-0.061799
0.073701,-0.14084,0.0074769,0.019379,0.15457,-0.32883,-0.05539,-0.035554
0.053254,-0.12192,-0.0016785,-0.074311,0.049897,0.32486,-0.16861,-0.056001
0.039216,-0.11093,-0.040436,-0.1088,0.1207,0.009308,-0.14969,-0.04715
0.026703,-0.10056,-0.031891,-0.0071717,0.03006,0.033112,0.12497,-0.016632
-0.02121,-0.046235,-0.075837,-0.059052,0.013886,0.035554,0.1207,-0.041657
-0.049897,-0.023346,-0.087129,-0.17777,0.042878,0.044404,0.15305,-0.023041
-0.072786,0.015412,-0.095064,-0.11551,0.030976,0.15274,0.10971,-0.027008
-0.075227,0.035554,-0.1033,-0.056306,0.099641,0.10452,0.12589,0.0035096
-0.081025,0.036164,-0.1149,-0.02945,0.039826,-0.11185,0.049592,0.039521
-0.057527,0.044404,-0.10452,-0.091096,-0.22995,-0.12619,-0.43626,0.037385
-0.053864,0.019379,-0.092622,-0.17563,-0.42283,-0.39719,-0.33951,0.052949
-0.066072,0.011444,-0.099641,-0.08896,0.06302,-0.095369,0.091402,0.057832
-0.029755,0.019379,-0.081331,-0.060273,-0.10941,1.1382,0.16922,0.094148
-0.02945,-0.010529,-0.048371,-0.056916,-0.038605,0.83024,0.18662,0.056306
0.0096132,-0.084688,-0.00045777,-0.023041,0.75639,-0.47684,0.051118,-0.0041199
0.019989,-0.11643,0.00015259,-0.057221,0.43656,-0.80034,0.035859,0.019074
0.019684,-0.10849,0.0019837,-0.1091,-0.23545,-0.75395,-0.10208,0.023957
0.011139,-0.099947,-0.01297,-0.074311,-0.22904,0.2092,-0.0022889,-0.0056458
-0.010834,-0.097505,-0.010529,-0.077363,-0.27237,0.37888,0.033417,-0.091096
-0.012055,-0.10208,-0.0206,-0.016022,-0.0071717,0.15091,0.036774,-0.08957
-0.0053407,-0.082856,-0.048676,-0.037385,0.09781,-0.37156,-0.038911,-0.020294
-0.0044251,-0.074311,-0.061189,-0.042573,0.14054,-0.58885,-0.18265,-0.063935
-0.039216,-0.023957,-0.08957,-0.096895,0.088045,0.32578,0.027314,-0.056916
-0.073396,0.041962,-0.11337,-0.12589,0.019989,0.096895,0.013886,-0.014496
-0.059968,0.041657,-0.10452,-0.050507,-0.0080873,0.037385,0.031281,0.016938
-0.062104,0.049897,-0.12039,-0.083772,0.026093,0.052338,0.04654,0.033722
-0.093538,0.069123,-0.11612,-0.10391,0.12192,0.014496,0.043488,0.062104
-0.077363,0.034333,-0.094453,-0.13321,0.26749,0.023041,0.07248,0.10361
-0.095674,0.060273,-0.087434,-0.11521,0.0086976,0.0206,0.11093,0.14694
-0.031586,-0.038911,-0.027924,-0.044709,-0.16587,0.095674,0.215,0.15885
-0.031586,-0.042878,-0.030976,-0.096895,-0.58061,0.075532,0.14603,0.080415
-0.009308,-0.032197,-0.072175,-0.13321,-0.53971,0.046235,0.018769,-0.044404
0.002594,-0.10178,0.0016785,-0.081331,0.11276,0.13779,0.06363,-0.074006
0.020905,-0.15854,0.047761,0.065156,0.11643,-0.00076295,-0.22416,-0.10178
0.04654,-0.1268,-0.0086976,-0.030365,0.16831,-0.076448,-0.44877,-0.079194
0.033722,-0.12955,-0.027924,-0.11185,0.19211,-0.027314,-0.010834,-0.070039
0.037079,-0.12772,-0.013581,-0.030365,0.11063,0.010529,0.1735,-0.037385
-0.00015259,-0.087434,-0.034943,-0.062715,0.11093,0.030671,0.098116,0.0071717
-0.016632,-0.022431,-0.084382,-0.083772,0.1387,-0.068208,0.051728,0.04593
-0.044709,-0.0022889,-0.093538,-0.09781,-0.011444,0.033417,-0.093233,0.038911
-0.082246,0.027619,-0.11124,-0.11032,0.11093,0.15274,-0.10941,0.0047303
-0.042878,0.061799,-0.11978,-0.11948,-0.26932,-0.025177,-0.0071717,0.02945
-0.085298,0.073091,-0.12253,-0.14145,-0.08957,-0.20737,0.081941,0.039216
-0.082856,0.04715,-0.098116,-0.072175,0.075532,-0.043183,0.088045,0.051423
-0.07187,-0.0028992,-0.073396,-0.015106,-0.28367,0.06302,-0.0096132,0.045319
-0.062715,-0.0047303,-0.093233,-0.11093,-0.29679,-0.019074,-0.012665,0.036164
-0.066072,-0.010224,-0.033722,-0.11643,0.54002,0.10666,0.045014,0.052033
-0.038911,-0.044404,-0.033112,-0.040436,0.074311,0.6566,0.15244,0.055085
0.019989,-0.092317,-0.022126,-0.042573,-0.17197,-0.031586,0.13535,0.05539
0.016938,-0.10575,0.00045777,-0.052338,0.20706,-0.35966,0.06302,0.048981
0.018769,-0.11887,0.024872,-0.078584,0.3209,-0.47959,0.050507,0.01297
0.049897,-0.13748,-0.019074,-0.040131,0.0077821,-0.11154,0.19974,-0.031891
0.033112,-0.085908,-0.026093,-0.072786,0.023651,-0.094453,0.0032044,-0.099947
0.04654,-0.095674,-0.018769,-0.06424,0.077363,0.16983,-0.47288,-0.13413
0.0032044,-0.056001,-0.056916,-0.047456,-0.69749,1.1849,0.092012,-0.069429
-0.013275,-0.029755,-0.091096,-0.06302,-0.48692,0.97368,0.27176,-0.053864
-0.035248,0.0047303,-0.11093,-0.12192,0.19638,-0.097505,-0.029755,-0.084077
-0.095369,0.039216,-0.11215,-0.10391,0.97429,-1.3841,-0.55589,-0.076143
-0.13474,0.067597,-0.12284,-0.11093,0.49088,-1.7949,-0.31357,-0.018158
-0.15152,0.065461,-0.11765,-0.10391,-0.35142,0.34409,0.21317,0.068513
-0.10727,0.048066,-0.10636,-0.086519,-0.26505,0.65385,0.023957,0.14603
-0.070649,-0.016022,-0.069429,-0.024872,0.19974,-0.13687,-0.041047,0.14817
-0.048371,-0.005951,-0.059358,-0.12039,0.093843,-0.04654,-0.021515,0.13107
-0.030976,-0.034333,-0.044709,-0.13046,-0.28855,0.15091,0.099641,0.11063
-0.031586,-0.046845,-0.031891,-0.083467,-0.04715,0.3032,0.27115,0.093843
-0.0056458,-0.078889,-0.016022,-0.054475,-0.0062562,0.2742,0.33249,0.10178
0.023957,-0.12436,0.017243,0.0056458,-0.12619,0.1387,0.24826,0.041657
0.030365,-0.12345,-0.0047303,-0.0206,-0.15457,-0.22507,0.097505,-0.079194
0.014191,-0.098726,-0.0065614,-0.12284,0.062104,-0.46677,-0.20615,-0.11795
0.043183,-0.098116,-0.029755,-0.075837,0.54032,0.051728,-0.47898,-0.082246
0.057221,-0.12619,-0.022736,-0.0068666,-0.21866,0.1387,-0.21042,-0.045014
0.020294,-0.075837,-0.062715,-0.021515,-0.16159,0.019379,0.1564,-0.064546
-0.015717,-0.012665,-0.077363,-0.062409,0.23453,0.38926,0.12039,-0.08072
-0.04715,0.023651,-0.10269,-0.14908,-0.012665,-0.051728,-0.058747,-0.069429
-0.051728,0.036469,-0.12253,-0.091402,0.074311,0.13779,0.095979,0.017853
-0.057527,0.030671,-0.11521,-0.035554,0.22721,0.36423,0.12253,0.061494
-0.098421,0.059663,-0.10849,-0.099641,-0.15427,-0.033112,-0.11246,0.030365
-0.12131,0.081941,-0.11093,-0.16556,-0.44755,-0.58122,-0.024567,0.090486
-0.098116,0.043183,-0.08011,-0.14298,-0.31235,-0.27909,0.16892,0.14939
-0.076143,-0.0083925,-0.046235,-0.067292,0.2092,0.11917,0.035554,0.076753
-0.058747,-0.0206,-0.046235,-0.095064,-0.082856,0.25132,0.075837,0.045014
-0.018463,-0.070039,-0.010834,-0.0053407,-0.1738,0.23453,0.096895,0.037079
0.016632,-0.12345,0.03006,0.014801,0.26413,-0.20523,0.002594,0.045014
0.030365,-0.11002,-0.01236,-0.060578,0.62608,-0.51804,-0.093538,-0.0010681
0.024872,-0.1149,-0.01297,-0.12497,-0.060578,0.19028,0.02182,-0.034333
0.049592,-0.11948,-0.0077821,-0.026703,-0.32425,0.19944,0.13993,-0.023346
0.048066,-0.086519,-0.023957,-0.0383,-0.072175,0.17563,0.26627,-0.036774
0.074006,-0.1149,-0.025483,0.0096132,0.066377,0.15915,0.18723,-0.075532
0.02121,-0.066072,-0.076143,-0.10086,0.21439,-0.19486,-0.25895,-0.13962
-0.033417,0.00045777,-0.11246,-0.03769,-0.28946,0.31815,-0.28275,-0.081636
-0.040436,-0.002594,-0.10605,-0.16953,-0.40085,-0.10544,0.15244,0.0086976
-0.10849,0.073396,-0.11887,-0.18662,0.19059,-0.81285,-0.40635,0.010529
-0.11612,0.084077,-0.12253,-0.11795,0.40085,0.38224,-0.17716,0.043793
-0.10422,0.033417,-0.103,-0.051118,0.25559,0.17685,0.076448,0.077668
-0.093233,0.035859,-0.092927,-0.13138,0.29557,-0.07248,0.02121,0.076143
-0.077974,0.03006,-0.068513,-0.12161,-0.19852,0.1738,0.13321,0.095369
-0.051423,-0.013886,-0.038605,-0.032502,0.0056458,-0.010224,0.093843,0.097505
-0.038911,-0.046235,-0.025483,-0.060883,0.20859,0.012055,0.087739,0.076753
-0.026703,-0.072175,-0.0038148,-0.076448,0.10452,0.039216,0.1561,0.061799
-0.0080873,-0.098726,-0.0077821,-0.068208,-0.33036,0.10544,0.25498,0.049592
0.019379,-0.13046,0.012665,0.017243,-0.51774,0.045624,0.28794,0.0077821
0.031891,-0.12894,-0.0047303,-0.038911,-0.014191,0.0044251,0.33707,-0.051423
0.025788,-0.10239,-0.040131,-0.091402,0.20188,0.046235,0.0074769,-0.12467
0.048066,-0.121,-0.018158,-0.033112,0.22538,0.08896,-0.90349,-0.13016
0.048066,-0.11063,-0.047761,0.053254,0.22202,-0.005951,-0.28122,-0.05539
0.013581,-0.059358,-0.042267,-0.09781,0.027619,0.031281,0.066377,-0.035554
-0.058747,0.056611,-0.12314,-0.19089,-0.43534,0.070344,-0.22477,-0.061799
-0.074617,0.034638,-0.14298,-0.14389,0.096284,-0.42435,0.10788,0.059968
-0.08011,0.026093,-0.11673,-0.036469,0.38437,-0.067597,0.13931,0.079194
-0.0795,0.044404,-0.10452,-0.078584,0.04593,0.026093,0.049897,0.015717
-0.075837,0.044709,-0.08072,-0.078584,-0.25559,-0.0383,0.0383,0.039826
-0.069429,0.035859,-0.11948,-0.14328,-0.53574,0.0028992,0.040131,0.067292
-0.056001,0.016632,-0.053254,-0.11093,-0.0053407,-0.092622,0.043488,0.090486
-0.04654,-0.020294,-0.036469,-0.10941,0.03006,0.093843,0.040131,0.067903
0.0032044,-0.10208,0.010529,0.021515,-0.00015259,0.025483,0.069734,0.036164
0.029145,-0.07248,-0.033112,-0.080415,0.098116,0.018769,0.059663,-0.0090028
0.027619,-0.12345,0.00015259,-0.09659,0.11856,0.15671,0.059358,-0.018769
0.019379,-0.11093,-0.0047303,0.00045777,0.018769,0.11795,0.064546,-0.019684
-0.0013733,-0.090181,-0.010834,-0.060578,0.096284,-0.04593,0.016022,-0.045319
-0.0044251,-0.10208,-0.014801,-0.046845,0.14237,-0.075837,-0.060578,-0.017548
0.0065614,-0.065461,-0.046845,-0.057527,0.16251,-0.14755,-0.067597,0.0080873
-0.023651,-0.033722,-0.068513,-0.092927,0.19059,-0.073396,-0.048676,-0.027619
-0.024262,-0.033722,-0.084688,-0.071565,0.037995,0.11337,0.042878,-0.050507
-0.070954,0.032502,-0.11826,-0.10178,-0.13962,0.18814,0.035859,-0.032502
-0.095979,0.044404,-0.11063,-0.086824,-0.49851,0.29709,0.049897,0.077363
-0.081636,0.056001,-0.12222,-0.075837,-0.13993,-0.13199,0.011444,0.16068
-0.0972,0.062409,-0.11765,-0.14664,0.28367,-0.48478,0.023957,0.1268
-0.078279,0.015106,-0.049897,-0.08072,-0.061799,0.16526,0.06424,0.064546
-0.066987,0.015412,-0.078584,-0.066682,-0.0041199,0.63066,0.08072,0.066682
-0.035859,-0.025483,-0.053254,-0.069429,0.38132,-0.021515,0.032197,0.061189
-0.028534,-0.037385,-0.060578,-0.053559,0.47562,-0.041047,-0.023346,-0.0041199
-0.025483,-0.048981,-0.020294,-0.11765,0.45274,0.084382,0.039216,-0.017548
0.009308,-0.092012,-0.00015259,-0.099641,-0.50309,-0.56535,0.0065614,0.00076295
0.055695,-0.14694,0.017853,-0.0206,-0.62181,-0.10758,0.081331,0.024872
0.066377,-0.14267,-0.0019837,-0.011139,-0.7277,0.7628,0.18692,-0.054475
0.055695,-0.10605,-0.020905,-0.032807,0.14237,0.18021,-0.039521,-0.12192
0.06363,-0.11429,-0.021515,-0.036469,0.59861,-0.14389,-0.29221,-0.094453
0.016938,-0.048371,-0.055085,-0.12253,0.32273,-1.1302,-0.40848,-0.10605
-0.027619,-0.034028,-0.07126,-0.081331,-0.03769,-0.28977,0.041657,-0.084993
-0.042573,-0.009308,-0.087434,-0.045624,-0.21073,0.47593,0.1561,-0.0047303
-0.068818,0.028229,-0.10086,-0.11032,0.029755,0.099336,0.066072,0.014801
-0.12314,0.092012,-0.12253,-0.16617,-0.3621,0.45335,0.1146,0.059968
-0.089876,0.052033,-0.1091,-0.031586,-0.44022,0.42283,0.11185,0.12436
-0.066682,0.0041199,-0.10208,-0.02945,0.085603,0.14084,0.18753,0.1088
-0.11551,0.04654,-0.094148,-0.17319,0.95506,-0.52049,0.095979,0.02121
-0.11307,0.030365,-0.081025,-0.18296,0.35508,0.075837,0.17319,0.049897
-0.051118,-0.038605,-0.057221,-0.05478,0.053559,-0.61357,0.27787,0.065156
-0.027314,-0.037995,-0.034028,-0.069429,-0.40146,-0.27085,0.21134,0.034333
0.015412,-0.092622,0.019989,-0.044404,0.17807,0.11002,-0.49577,0.0053407
0.039216,-0.13046,0.019379,-0.046845,-0.08896,-0.13687,-0.73777,-0.023651
0.041962,-0.11887,-0.027008,-0.038605,-0.040436,0.3267,-0.072175,-0.061494
0.041047,-0.1268,0.0035096,-0.017243,-0.13382,0.52232,0.031586,-0.04715
0.034028,-0.11246,-0.018158,-0.085298,-0.24949,-0.092012,0.18296,0.057527
0.031891,-0.092012,-0.036774,-0.075532,0.095674,0.14511,0.51469,0.10056
0.011139,-0.078279,-0.066987,-0.036774,0.097505,0.18143,0.086824,-0.00045777
0.009308,-0.064851,-0.058442,-0.0041199,0.07187,-0.013581,-0.49668,-0.10452
-0.064546,0.028534,-0.11032,-0.14786,0.16068,-0.20462,-0.30411,-0.18296
-0.10117,0.064546,-0.12528,-0.12192,-0.23239,-0.34348,-0.15274,-0.066682
-0.084382,0.048676,-0.10422,-0.07126,-0.04654,-0.11368,-0.076143,0.02945
-0.09781,0.063935,-0.11215,-0.063325,0.15885,-0.033722,0.068513,0.07126
-0.095369,0.043793,-0.10819,-0.15122,-0.085908,0.16526,0.17136,0.11765
-0.103,0.036164,-0.098421,-0.17716,-0.27054,0.1268,0.18479,0.10819
-0.10849,0.042267,-0.059358,-0.090486,-0.31357,0.38651,0.31601,0.098421
-0.048371,-0.02884,-0.035859,-0.0086976,0.24491,-0.15579,0.18845,0.10391
-0.0041199,-0.08896,-0.0074769,0.023346,0.38224,-0.17533,-0.093538,0.068208
0.071565,-0.15183,0.016022,-0.015106,0.39261,0.14267,0.012665,0.031281
0.08072,-0.12741,-0.011444,-0.20584,0.24826,0.023957,0.070344,-0.0096132
0.077363,-0.12161,0.00045777,-0.016327,-0.0047303,0.095369,-0.066987,-0.091402
0.04715,-0.092317,-0.0096132,-0.051728,-0.5684,0.44724,-0.062715,-0.069734
0.025177,-0.088655,-0.0206,-0.094759,0.044099,0.13107,0.035859,-0.045319
0.045014,-0.13199,-0.026703,-0.0074769,0.22538,-0.073701,0.049592,-0.041657
0.0086976,-0.064546,-0.090791,-0.052644,0.056306,-0.72251,-0.0206,-0.023346
-0.027619,-0.0083925,-0.10239,-0.11063,0.06302,-0.50614,-0.030671,-0.064546
-0.06302,0.035859,-0.11215,-0.16281,0.1735,0.17807,-0.070649,-0.073091
-0.10178,0.053864,-0.10849,-0.070649,-0.50309,0.30411,-0.014496,-0.0044251
-0.10971,0.065461,-0.1146,-0.068513,-0.22293,0.093538,0.061799,0.059663
-0.12589,0.076753,-0.10697,-0.090791,0.17533,-0.057527,0.04593,0.092317
-0.12436,0.063325,-0.094453,-0.093843,0.0013733,0.0050355,0.051728,0.045014
-0.10513,0.016327,-0.067903,-0.092317,0.025483,0.00045777,0.022736,0.0053407
-0.099947,-0.0062562,-0.045014,-0.12741,0.0086976,0.016022,0.095369,0.067903
-0.063935,-0.019989,-0.023651,-0.065461,0.019684,0.066682,0.14725,0.11032
-0.015412,-0.056916,-0.02884,-0.064851,-0.0047303,0.32822,0.063935,0.1384
0.031281,-0.13474,0.014191,-0.042267,0.0065614,0.73228,0.11856,0.10178
0.039826,-0.11368,-0.018158,-0.035554,-0.15671,0.67094,0.2266,0.02182
0.074311,-0.13138,0.0019837,-0.047456,-0.077058,-0.15427,-0.12314,-0.051118
0.052033,-0.12619,-0.01297,-0.030365,0.28092,-1.585,-0.55039,-0.12131
0.035554,-0.10056,-0.036164,-0.060578,0.21561,-1.0719,-0.1619,-0.077668
0.020294,-0.078889,-0.043183,-0.039521,0.099947,0.51591,0.15213,-0.027619
-0.016327,-0.039521,-0.075227,-0.087434,0.38132,0.21744,0.061799,-0.037079
-0.052033,-0.0028992,-0.08835,-0.10086,0.21164,0.27817,0.092317,0.005951
-0.061799,0.022736,-0.1207,-0.069734,-0.2504,0.34043,0.099947,0.058137
-0.070954,0.034333,-0.10727,-0.10483,-0.65232,0.10849,-0.002594,0.016022
-0.081941,0.040436,-0.11521,-0.069734,-0.3743,-0.31571,-0.087434,0.023041
-0.073396,0.057221,-0.11307,-0.11582,0.65171,-0.28885,-0.040742,0.050507
-0.068208,0.03769,-0.083467,-0.058137,0.16953,0.093538,-0.0028992,0.043793
-0.05478,0.0056458,-0.052338,-0.046845,-0.70237,0.34134,0.019684,0.023346
-0.039216,-0.010834,-0.057832,-0.12039,-0.1442,0.13687,0.041047,0.043793
-0.033722,-0.0383,-0.028534,-0.078584,0.15,-0.19516,0.035554,0.041962
0.02884,-0.11551,-0.016938,-0.043183,-0.014191,-0.092012,0.060578,0.032807
0.035248,-0.11368,0.0041199,-0.12924,0.25345,0.10971,0.075227,0.0035096
0.059663,-0.1088,-0.0053407,-0.041047,0.25223,0.41917,0.060273,-0.02884
0.056611,-0.12467,0.00015259,0.011444,-0.13993,0.24216,0.093538,-0.010224
0.075837,-0.10666,-0.024872,-0.018463,0.27512,-0.22599,-0.087434,-0.030671
0.041352,-0.090486,-0.020905,-0.085908,0.35874,-0.31357,-0.168,-0.071565
0.022126,-0.082856,-0.040742,-0.1326,-0.02945,0.0086976,0.039521,-0.061494
-0.0096132,-0.042267,-0.087129,-0.061189,-0.33921,0.22812,0.16617,-0.059663
-0.085908,0.025483,-0.12619,-0.090791,-0.066072,0.14206,0.10056,-0.085298
-0.08957,0.026398,-0.099031,-0.1207,0.16587,0.20127,-0.11032,-0.022736
-0.10239,0.050202,-0.12467,-0.11063,-0.18814,-0.24674,-0.34043,0.00045777
-0.11917,0.077974,-0.12772,-0.11582,-0.16373,-0.37156,0.039216,0.07187
-0.12345,0.062409,-0.10086,-0.087129,-0.054475,0.082856,0.14115,0.15732
-0.13779,0.059663,-0.091096,-0.07248,0.042267,0.14359,-0.16251,0.15488
-0.1146,0.017548,-0.050507,-0.095674,-0.084077,0.41886,0.038911,0.14176
-0.082856,-0.010224,-0.040436,-0.13748,0.025483,0.43839,0.38468,0.11215
-0.052644,-0.047761,-0.0206,-0.10056,0.30869,-0.45884,0.21134,0.076143
0.0053407,-0.12039,0.016632,0.039216,0.012055,-0.96178,0.084382,0.0080873
0.0038148,-0.10636,0.0056458,0.002594,0.16892,0.12772,0.068513,-0.076143
0.035859,-0.12833,-0.00045777,-0.044099,0.13413,0.18387,-0.27085,-0.078889
0.024262,-0.098421,-0.016938,-0.07126,0.20523,-0.13169,-0.5095,-0.037079
0.045624,-0.11673,-0.0206,-0.046235,0.12711,-0.0071717,-0.019379,-0.0032044
0.043488,-0.084382,-0.058137,-0.079194,-0.04654,0.24063,0.19394,-0.039826
0.0090028,-0.070954,-0.055085,-0.056916,-0.32883,0.44053,0.18753,-0.074006
-0.015717,-0.049592,-0.092012,-0.098726,-0.015717,0.037079,0.0795,-0.056611
-0.034333,0.033112,-0.13474,-0.16739,-0.10788,0.2562,0.062104,0.0077821
-0.057527,0.040131,-0.11765,-0.055695,-0.5333,0.12406,-0.032502,-0.00076295
-0.030976,0.013581,-0.077058,-0.033722,0.10971,-0.14633,-0.091096,-0.00015259
-0.039216,0.02182,-0.10941,-0.09781,-0.075532,0.052949,-0.22049,0.036164
-0.051728,0.039521,-0.088655,-0.089265,0.15579,-0.851,-0.072786,0.059663
-0.084993,0.051118,-0.082551,-0.11124,0.5687,-0.61173,0.19547,0.096284
-0.10025,0.033722,-0.07248,-0.15305,-0.16159,0.75731,0.22507,0.11429
-0.045319,-0.022431,-0.044709,-0.063325,-0.23423,0.57237,0.19333,0.1442
0.035554,-0.10605,-0.0013733,0.00045777,0.056916,-0.056611,-0.087434,0.033417
0.02884,-0.12833,-0.01236,-0.068513,-0.034943,-0.092622,-0.28885,-0.06363
0.011749,-0.1207,0.00045777,-0.064851,-0.0068666,-0.63981,-0.09781,-0.072786
0.031891,-0.13993,0.037385,-0.036164,-0.215,0.49638,0.23758,-0.04715
0.030976,-0.10666,-0.020294,-0.054475,-0.28794,0.42344,0.28611,-0.010529
0.030365,-0.10483,-0.023957,-0.042573,0.094453,-0.35142,0.17288,-0.081331
-0.016938,-0.041657,-0.069429,-0.083162,0.94713,-0.93309,0.052338,-0.12009
-0.07187,-0.002594,-0.080415,-0.091402,0.32578,0.37308,0.11856,-0.064546
-0.040436,-0.045624,-0.061189,-0.032807,-0.17838,0.53422,-0.46342,-0.044709
-0.073091,0.031281,-0.12741,-0.11521,-0.24918,-0.25498,-0.69902,0.0047303
-0.067597,0.043793,-0.1088,-0.121,-0.48753,0.16129,0.33707,0.07126
-0.067292,0.056611,-0.11826,-0.034943,0.1207,-0.033722,0.24521,0.086824
-0.068208,0.04593,-0.10697,-0.067597,0.36118,0.099641,0.15793,0.11093
-0.08072,0.038605,-0.088045,-0.1912,0.18143,-0.0099184,-0.32517,0.060273
-0.053254,-0.0096132,-0.04715,-0.10391,0.13474,0.073396,-0.32242,0.054475
-0.04654,-0.0068666,-0.066072,-0.093233,-0.1561,0.1677,0.16281,0.07187
-0.0028992,-0.059968,-0.018769,-0.033417,-0.014496,0.12009,0.10483,0.077668
0.03006,-0.1146,0.0062562,0.033112,-0.048371,-0.31388,0.14847,0.028229
0.036774,-0.093538,-0.026398,-0.086519,0.16068,-0.58885,-0.041047,-0.023346
-0.017243,-0.067903,-0.010834,-0.16068,-0.19272,0.23362,-0.051728,-0.030976
0.026703,-0.11856,-0.0016785,-0.030365,-0.40452,0.39139,0.16648,0.015717
0.019989,-0.094759,-0.024262,-0.022431,0.068208,-0.058137,0.080415,-0.012665
0.043488,-0.1146,-0.0065614,-0.026703,0.17258,0.067597,0.063935,-0.095369
-0.0071717,-0.072175,-0.04654,-0.10361,0.34409,0.055695,0.017548,-0.12833
-0.024567,-0.048066,-0.060578,-0.010834,0.29374,-0.094759,0.052338,-0.040742
-0.056001,0.022736,-0.13626,-0.13901,0.16007,-0.069734,0.08835,0.010834
-0.10575,0.066682,-0.13046,-0.1149,-0.48508,0.27268,0.050507,0.022736
-0.09781,0.059663,-0.099336,-0.10788,-0.8043,0.077668,0.1091,0.060578
-0.079194,0.0383,-0.10025,-0.073091,0.019989,-0.23026,0.078279,0.10025
-0.081025,0.047456,-0.099641,-0.12375,0.29587,0.013275,-0.28367,0.10849
-0.069734,0.025788,-0.099031,-0.11582,0.26841,0.11978,-0.087739,0.10086
-0.064546,0.0062562,-0.051728,-0.060883,-0.18784,0.062104,0.215,0.093843
-0.022736,-0.044099,-0.040742,-0.041047,-0.075227,0.068513,0.038911,0.057527
-0.012665,-0.059663,-0.037995,-0.099031,-0.1265,-0.073396,-0.1622,0.0010681
0.027008,-0.11002,0.0041199,-0.040436,0.033722,-0.32364,-0.058137,-0.0062562
0.026703,-0.11154,-0.0028992,-0.067597,0.3563,-0.05539,0.060273,-0.041047
0.029755,-0.10697,-0.0062562,-0.05478,0.41123,0.24338,0.12985,-0.068818
0.057221,-0.12497,-0.0016785,-0.042267,-0.053559,0.2501,0.16312,-0.059052
0.056611,-0.10636,-0.022736,-0.018769,0.22446,-0.16678,0.059358,-0.090791
0.032807,-0.10758,-0.022431,-0.043183,-0.099641,-0.28397,-0.19547,-0.12741
-0.00015259,-0.060578,-0.069123,-0.052949,-0.44266,-0.014801,-0.47318,-0.11154
-0.038911,-0.010224,-0.10147,-0.077668,-0.045624,0.42557,-0.074922,-0.032807
-0.073396,0.057221,-0.12284,-0.14298,0.0041199,0.34226,0.14023,0.045319
-0.10971,0.081941,-0.11643,-0.12802,0.10025,0.20981,0.16068,0.10788
-0.084993,0.025788,-0.11032,-0.042878,-0.31144,-0.61082,0.12314,0.08011
-0.048676,0.025177,-0.092927,-0.063325,-0.39292,-0.31296,0.11002,0.049287
-0.058137,0.031281,-0.093233,-0.17136,0.66117,0.22873,0.11612,0.046845
-0.088045,0.028229,-0.068818,-0.069734,0.66697,0.18509,-0.10544,0.031281
-0.066682,0.0077821,-0.058137,-0.12558,-0.47715,0.35996,-0.11948,0.058137
-0.040742,-0.02945,-0.044709,-0.09781,-0.024872,-0.36088,-0.067292,0.079805
0.00045777,-0.069429,-0.0056458,-0.049592,0.0010681,-0.50645,-0.10697,0.066072
0.0028992,-0.10178,0.0044251,-0.068818,-0.27298,0.1442,0.09781,0.029755
-0.015412,-0.10056,-0.01236,-0.065461,-0.044709,0.025483,0.074617,0.0038148
-0.0068666,-0.121,0.0083925,-0.05478,0.13382,0.066987,0.08011,0.0041199
0.0013733,-0.1207,-0.005951,-0.027008,0.077363,0.103,0.0795,-0.0047303
0.0028992,-0.095979,-0.023957,-0.027619,0.015412,0.082551,0.044404,-0.023041
-0.0086976,-0.07187,-0.062104,-0.052338,0.07126,0.024262,0.044404,-0.028229
-0.026398,-0.04593,-0.066987,-0.11856,0.15274,0.0041199,0.086519,0.00045777
-0.049287,-0.012665,-0.098421,-0.10575,0.022126,0.00015259,0.12009,0.045624
-0.07187,0.026398,-0.11276,-0.061799,-0.17685,0.038605,0.016022,0.075532
-0.06363,0.030365,-0.11368,-0.043183,-0.10819,0.11948,-0.2504,0.085603
-0.08011,0.054475,-0.11704,-0.085298,0.013581,-0.08011,-0.04715,0.037079
-0.086213,0.059968,-0.10849,-0.14908,0.17899,-0.23606,0.048371,0.060273
-0.04715,0.039216,-0.092622,-0.16556,0.29648,0.27909,0.11215,0.11032
-0.017243,-0.043793,-0.035859,0.050202,0.2562,0.10483,0.060578,0.02182
-0.0086976,-0.026703,-0.057832,-0.072175,-0.2211,-0.14969,-0.10788,-0.073701
-0.010529,-0.031891,-0.051728,-0.11368,-0.30381,0.0038148,-0.10819,-0.092927
0.027314,-0.085908,0.0041199,-0.04715,0.017243,-0.07248,-0.059358,-0.095979
0.025483,-0.11185,0.002594,-0.056916,0.0016785,-0.022126,-0.017243,-0.10697
0.019074,-0.10788,-0.013886,-0.092317,0.0099184,0.050202,0.030976,-0.08835
0.024872,-0.094148,-0.031891,-0.0074769,-0.0028992,0.043488,0.032197,-0.039521
0.023957,-0.08957,-0.015717,-0.079194,0.0096132,0.033112,0.025788,-0.025483
0.017243,-0.12161,-0.0090028,-0.040742,0.034028,0.016938,0.012665,-0.040436
0.0035096,-0.068208,-0.061799,-0.087739,0.027314,0.026703,-0.0019837,-0.032502
-0.019684,-0.068208,-0.041657,-0.036774,0.052033,0.13565,-0.0068666,-0.016327
-0.073396,0.036469,-0.13169,-0.11856,0.1088,0.16556,0.070344,-0.0047303
-0.094148,0.060273,-0.1268,-0.13901,0.10544,-0.066377,0.13901,0.05539
-0.06363,0.027924,-0.11734,-0.13535,-0.027008,-0.15763,0.10819,0.11276
-0.0795,0.044099,-0.10819,-0.091707,-0.24552,-0.65751,-0.28214,0.063935
-0.086824,0.024262,-0.082246,-0.049592,-0.1146,0.21775,-0.044404,0.078584
-0.076753,0.032197,-0.10147,-0.080415,-0.13779,0.62486,0.27054,0.10666
-0.083467,0.036469,-0.07126,-0.12802,0.066377,-0.42344,0.19486,0.056611
-0.053559,-0.017548,-0.046235,-0.10361,0.06363,0.25742,0.049592,0.060273
-0.015412,-0.084993,0.0065614,-0.073701,-0.024262,0.20859,-0.034943,0.03006
0.023651,-0.10056,-0.017853,-0.055085,-0.19211,-0.28275,-0.11826,0.0047303
0.041657,-0.10452,-0.0022889,-0.010529,-0.27085,0.093843,-0.10697,0.0056458
0.07248,-0.1564,0.019989,0.032502,0.34684,0.29404,-0.025177,-0.02121
0.083772,-0.14176,-0.027619,-0.0028992,0.25498,0.22538,-0.19699,-0.10422
0.062104,-0.10605,-0.014191,-0.090486,-0.057832,0.29892,-0.024872,-0.087129
0.020905,-0.082246,-0.030365,-0.091707,0.4741,-0.69505,0.016938,-0.065156
-0.038911,-0.023957,-0.073396,-0.056611,0.02945,-0.59617,-0.0041199,-0.062715
-0.051423,-0.00015259,-0.10544,0.021515,-0.015106,0.20035,0.011749,0.0019837
-0.048676,-0.012055,-0.081025,-0.078584,-0.092927,0.14298,0.033112,0.041962
-0.12772,0.073396,-0.121,-0.25162,-0.19699,0.2797,0.048066,0.049592
-0.093843,0.056306,-0.103,-0.1149,-0.084993,0.10117,0.055695,0.055695
-0.093233,0.059358,-0.11887,-0.121,0.21469,-0.28275,0.094148,0.071565
-0.066072,0.019684,-0.11063,-0.18875,0.30991,-0.26139,0.12711,0.075227
-0.058137,0.023651,-0.082856,-0.026398,-0.08896,0.11673,0.073396,0.056306
-0.039521,-0.016327,-0.035554,-0.052644,0.086213,0.17105,-0.063325,0.030976
-0.027619,-0.03769,-0.042573,-0.061494,-0.46921,0.56565,-0.1384,0.035859
-0.031891,-0.048981,-0.0062562,-0.049592,0.25681,-0.45792,-0.038911,0.0013733
0.023957,-0.12406,0.033417,-0.011139,0.41032,-0.22019,0.024262,-0.0068666
0.030365,-0.10666,-0.02884,-0.10483,-0.5919,0.35538,0.023957,-0.016327
0.045319,-0.12039,-0.0096132,-0.074311,-0.36759,0.15366,0.046235,-0.055695
0.035248,-0.14267,0.0035096,0.005951,0.016632,0.15274,0.08011,-0.035859
0.015717,-0.10697,-0.033722,-0.035248,0.16281,-0.039521,0.017853,-0.027619
-0.023346,-0.046845,-0.050813,-0.09781,0.19272,-0.94377,-0.25742,-0.084993
-0.031891,-0.026398,-0.068818,-0.092927,0.10178,-0.074006,-0.024872,-0.068818
-0.049897,-0.018769,-0.098116,-0.069734,-0.010834,0.27359,0.13535,0.0047303
-0.081331,0.022126,-0.11124,-0.10452,-0.0010681,0.024262,0.1622,0.051423
-0.077363,0.047761,-0.12039,-0.099641,0.016938,0.07126,0.20157,0.09781
-0.10819,0.076143,-0.1207,-0.11704,-0.13993,0.43503,0.13901,0.082246
-0.11582,0.058137,-0.1091,-0.094759,-0.38254,0.98894,-0.13993,0.082551
-0.055085,-0.0035096,-0.070954,-0.043183,-0.1735,0.49882,0.0096132,0.089876
-0.053559,-0.0041199,-0.081331,-0.11643,0.50553,-0.21744,0.13718,0.037079
-0.048371,0.0053407,-0.055695,-0.09659,0.4036,-1.3692,-0.069429,0.011749
-0.022431,-0.040436,-0.022736,-0.084993,-0.33799,-0.89799,-0.40818,0.053864
0.00076295,-0.08957,-0.0016785,-0.046845,0.53025,-0.27665,-0.36606,0.022736
0.023957,-0.10758,0.0041199,-0.082246,0.092622,0.20584,0.16861,0.046845
0.039216,-0.10544,0.010529,-0.057221,-0.002594,0.4213,0.26444,0.031281
0.080415,-0.13901,0.0019837,0.02945,-0.2153,0.21805,0.36057,-0.017243
0.1088,-0.1384,-0.034638,-0.022736,-0.19303,0.14267,0.29648,-0.073396
0.043793,-0.098116,-0.0068666,-0.092927,-0.00076295,0.12985,0.14237,-0.15
-0.017548,-0.048066,-0.062104,-0.057221,-0.049897,-0.13901,0.081941,-0.15
-0.088045,-0.013886,-0.065766,-0.051118,0.60227,0.2443,-0.31113,-0.042878
-0.074922,0.013275,-0.10666,-0.091707,0.44388,0.40482,-0.37217,0.047761
-0.078889,0.018158,-0.12619,-0.18509,-0.78294,0.2858,0.24949,0.13169
-0.077668,0.022431,-0.11826,-0.103,-0.56718,-0.077363,0.08957,0.10361
-0.11643,0.0795,-0.13169,-0.095369,-0.069123,-0.58061,-0.32029,0.061494
-0.10544,0.065766,-0.10361,-0.077668,0.16678,-0.041352,0.15793,0.014191
-0.10056,0.039521,-0.11032,-0.10697,0.17288,0.066377,-0.28397,-0.045319
-0.075837,0.0044251,-0.067292,-0.085908,0.11032,-0.1146,-1.0311,-0.046845
-0.024262,-0.041352,0.013886,0.0065614,0.0019837,0.0038148,0.13016,0.065461
-0.00015259,-0.062409,-0.0062562,-0.11856,-0.16403,0.04654,0.30472,0.067597
0.032807,-0.10971,-0.023957,-0.074617,-0.0086976,0.064851,0.15457,0.028229
0.040436,-0.10971,-0.0035096,-0.040436,0.1326,0.096895,0.19913,-0.0044251
0.053254,-0.13382,0.027314,-0.026398,0.28733,0.015106,0.11398,-0.036774
0.046235,-0.12589,-0.016632,-0.038911,-0.075227,0.030365,0.077668,-0.027619
0.034333,-0.093538,-0.030976,-0.085908,-0.1738,0.0019837,0.065461,-0.032502
0.032197,-0.10178,-0.040742,-0.059052,0.11032,-0.10605,0.060578,-0.033417
0.0056458,-0.04593,-0.073396,-0.053559,0.04715,-0.047761,0.04715,-0.069429
-0.032502,-0.017853,-0.10025,-0.068513,0.07126,0.12467,0.055085,-0.058137
-0.082246,0.030671,-0.098726,-0.10788,0.15671,0.3212,0.11215,-0.0090028
-0.10056,0.069123,-0.12955,-0.092927,-0.021515,0.35233,0.12985,0.0053407
-0.084382,0.025483,-0.094453,-0.096284,-0.21347,0.082246,0.075532,0.054475
-0.098116,0.053559,-0.1091,-0.15366,-0.31235,-0.57755,-0.045014,0.069429
-0.070039,0.035554,-0.098116,-0.086824,0.05417,-0.48203,0.016022,0.088045
-0.069429,0.019379,-0.081941,-0.080415,0.2153,-0.08957,0.027924,0.0795
-0.067903,-0.0022889,-0.050202,-0.095674,0.26535,0.17014,0.0038148,0.040436
-0.0383,-0.048066,-0.022736,-0.049592,0.27756,0.11307,0.005951,0.069429
-0.030365,-0.044709,-0.036469,-0.11276,-0.27665,-0.035248,-0.15549,0.055695
0.0071717,-0.10056,0.010529,-0.058747,-0.41978,0.2797,-0.055085,-0.0022889
0.031281,-0.1265,0.0083925,-0.0035096,0.04715,0.030671,0.13291,-0.065766
0.041047,-0.12039,-0.00076295,-0.053559,0.087434,-0.030365,0.056001,-0.037385
0.021515,-0.1146,-0.0053407,-0.06363,0.062104,0.038911,0.051728,0.032197
0.037385,-0.10788,-0.018158,-0.038911,0.042267,-0.14878,0.053864,0.036774
0.032197,-0.084077,-0.058442,-0.033417,0.0795,-0.26474,-0.0013733,0.0065614
-0.0050355,-0.027314,-0.099336,-0.096284,0.14664,0.12345,-0.047761,-0.059358
-0.025788,-0.045319,-0.075227,-0.04715,-0.012665,0.41123,-0.035859,-0.033112
-0.060883,0.027619,-0.1146,-0.15457,-0.092317,0.19028,-0.053559,-0.040436
-0.089876,0.04593,-0.12863,-0.1384,0.023346,-0.1912,-0.063935,-0.030365
-0.077668,0.051423,-0.10636,-0.08835,-0.031281,-0.061799,0.049897,0.057221
-0.087129,0.058137,-0.10117,-0.080415,-0.040742,-0.0056458,0.065766,0.085908
-0.084077,0.051728,-0.082856,-0.084382,-0.0083925,-0.055085,-0.0383,0.076448
-0.037385,-0.0096132,-0.050507,-0.03769,-0.013581,-0.039521,-0.067903,0.08011
-0.035859,0.0035096,-0.075837,-0.10971,-0.022126,-0.016327,0.016632,0.081331
-0.014801,-0.04593,-0.03006,-0.1735,-0.045319,-0.046235,0.052033,0.057221
-0.0083925,-0.066987,-0.022126,-0.060273,-0.45487,0.014191,0.088045,0.035554
0.035554,-0.14878,0.029755,0.038605,-0.37247,0.019989,0.18509,-0.0032044
0.070039,-0.17594,0.0065614,0.0096132,0.71611,-0.37705,0.033722,-0.063935
0.053254,-0.10483,-0.027924,-0.066987,0.99168,0.36728,0.11826,-0.11734
0.036164,-0.088045,-0.0013733,-0.11246,-0.22873,1.0726,0.24002,-0.085298
0.024262,-0.10788,-0.033722,0.0047303,-0.39353,-0.012665,-0.11582,-0.067597
0.0050355,-0.045624,-0.043183,-0.028229,0.062104,-0.48203,-0.18112,-0.054475
-0.022736,-0.026703,-0.094148,-0.13993,0.084077,-0.34287,-0.2916,-0.081025
-0.059358,0.0062562,-0.13291,-0.11887,0.033722,-0.18601,-0.33555,-0.091402
-0.103,0.042573,-0.12314,-0.096895,-0.0056458,-0.059663,-0.14176,-0.022736
-0.12741,0.057527,-0.10422,-0.10056,-0.023346,0.026398,0.052338,0.033722
-0.15702,0.070344,-0.099336,-0.063325,-0.048676,0.30564,0.16281,0.07248
-0.11795,0.062715,-0.10239,-0.17716,-0.10025,0.34989,0.1149,0.13626
-0.084382,0.039521,-0.095064,-0.1207,-0.049592,0.094759,0.12375,0.17166
-0.06363,0.0086976,-0.06302,-0.077363,-0.027619,-0.69596,0.018158,0.085908
-0.044709,-0.02884,-0.037995,-0.062409,-0.091402,-0.64897,-0.024872,0.030365
-0.015412,-0.092622,-0.0019837,-0.010224,0.041047,0.28641,0.098726,0.049592
0.009308,-0.084382,-0.021515,-0.024872,0.092317,0.12772,0.06302,0.036774
0.0090028,-0.087739,0.00015259,-0.10758,0.071565,0.076753,0.033112,-0.0041199
0.026703,-0.1384,0.021515,-0.016022,-0.055695,0.12497,0.030976,-0.0053407
0.072786,-0.13626,0.0035096,-0.09781,-0.12314,0.065156,-0.0028992,-0.022126
0.023041,-0.099641,-0.041657,-0.089876,0.024872,0.070649,-0.049287,-0.08835
-0.023346,-0.047761,-0.058137,-0.025177,-0.038911,0.19455,0.0050355,-0.07187
-0.0071717,-0.053559,-0.047761,-0.041352,-0.18051,0.15305,0.10391,-0.002594
0.022736,-0.064851,-0.078279,-0.011444,0.019684,-0.11368,0.047761,0.0013733
-0.030365,0.019379,-0.13077,-0.13107,0.82261,-0.63005,-0.09781,-0.064546
-0.073091,0.039521,-0.11124,-0.1268,0.38041,0.26017,-0.067903,-0.026703
-0.095369,0.045624,-0.11521,-0.12345,-0.71733,0.5095,0.055695,0.086213
-0.0795,0.056001,-0.1091,-0.082551,-0.013581,0.069734,0.055695,0.08835
-0.05478,0.035859,-0.10025,-0.055085,0.215,-0.18051,0.043183,0.062104
-0.048676,0.015412,-0.073091,-0.025177,0.067903,-0.63249,-0.063935,0.029145
-0.041047,0.0032044,-0.063325,-0.15854,-0.16068,0.56718,0.068208,0.028229
-0.030365,-0.040131,-0.018463,-0.19699,-0.63432,1.1772,0.16281,0.020905
-0.0047303,-0.083467,-0.005951,-0.027619,-0.093233,0.35142,0.1207,0.050507
0.041352,-0.14603,0.013886,0.059663,0.83482,-0.47471,0.10971,0.045624
0.048066,-0.13474,-0.013581,-0.030976,1.23,-1.7702,-0.18204,-0.052949
0.045319,-0.11978,-0.014191,-0.093843,0.073091,-0.049897,0.059663,-0.074922
0.0074769,-0.094148,-0.013581,-0.069734,-1.364,0.83635,-0.44785,-0.069734
-0.0068666,-0.092317,-0.02182,-0.085908,-0.71336,-0.12985,-0.27359,-0.078889
-0.015412,-0.052033,-0.050507,-0.068208,0.17014,0.0090028,0.16922,-0.051423
-0.042878,-0.023957,-0.078584,-0.07248,0.20462,0.012665,0.062104,-0.010529
-0.067292,0.0056458,-0.0972,-0.082246,0.1387,0.081331,0.091402,0.031586
-0.073091,0.040742,-0.1149,-0.078279,0.073396,0.087739,0.093843,0.057221
-0.086213,0.035554,-0.10452,-0.10086,0.051728,0.051118,0.092927,0.063935
-0.064851,0.031281,-0.12467,-0.096895,0.039216,-0.12619,-0.0056458,0.072175
-0.093538,0.048066,-0.11215,-0.090486,0.033417,0.069123,0.1146,0.082551
-0.10391,0.05417,-0.0972,-0.10727,0.015717,0.099336,0.17258,0.071565
-0.059663,-0.0016785,-0.061189,-0.096895,0.010834,-0.0086976,0.12161,0.047761
0.01297,-0.057832,-0.040131,-0.045624,0.02945,-0.020294,0.18692,0.066377
0.0068666,-0.034638,-0.042878,-0.080415,-0.0068666,-0.043793,-0.24674,-0.014191
-0.022126,-0.072175,0.00076295,-0.086519,0.034333,0.020294,-0.34409,-0.045319
-0.0086976,-0.11856,0.014191,-0.037079,0.36912,-0.061799,0.12314,0.048981
0.013275,-0.11551,0.00076295,-0.00015259,0.14603,0.2797,0.23331,0.034028
0.053559,-0.12406,-0.005951,0.067903,0.12253,0.06424,0.032197,0.00076295
0.057527,-0.10971,-0.029145,-0.19974,-0.49516,0.17685,-0.43442,-0.073396
-0.014191,-0.05417,-0.048066,-0.14939,-0.51133,-0.10147,-0.18875,-0.10178
-0.030671,-0.041657,-0.066682,-0.045624,0.033722,-0.22324,0.11643,-0.027008
-0.036469,-0.025788,-0.075227,-0.099947,0.13169,0.098726,0.1088,-0.027314
-0.059968,-0.0065614,-0.08835,-0.080415,-0.14176,0.24796,0.053254,-0.032807
-0.052033,-0.0047303,-0.086824,-0.014191,-0.081331,0.24247,0.16709,0.04715
-0.073091,0.027924,-0.12345,-0.10758,0.27726,-0.16678,0.18326,0.035859
-0.093233,0.075532,-0.13657,-0.14969,0.25834,-0.92973,-0.032807,0.018158
-0.083162,0.05539,-0.11704,-0.10056,0.24613,-0.090181,-0.002594,0.058442
-0.095369,0.081331,-0.11093,-0.13169,-0.009308,0.46311,0.084688,0.066377
-0.0383,-0.060578,-0.0041199,-0.0206,-0.26139,-0.15305,-0.088045,0.029755
-0.0068666,-0.05539,-0.060273,-0.078889,-0.024262,-0.090791,-0.1564,-0.014496
-0.037079,-0.056611,0.0035096,-0.06424,0.30411,0.036164,-0.014496,-0.019684
-0.00045777,-0.10422,0.025788,-0.049592,-0.15152,0.29007,0.15,0.094453
0.0056458,-0.11032,-0.014801,-0.077058,-0.08896,-0.0010681,0.038911,0.083467
0.023346,-0.10971,-0.013886,-0.030671,0.10971,-0.19181,-0.10758,0.027619
0.056306,-0.11093,-0.014801,-0.073701,0.071565,0.049592,0.069734,0.0035096
0.0383,-0.099947,-0.019074,-0.065461,-0.070954,0.51316,0.19242,-0.037079
0.02121,-0.076143,-0.048066,-0.047456,-0.0080873,0.024262,0.074617,-0.062715
-0.014801,-0.048066,-0.078889,-0.043183,0.077363,-0.12039,0.059052,-0.052644
-0.031281,-0.027619,-0.097505,-0.056916,0.023041,-0.050202,0.0074769,-0.031586
-0.024872,-0.03006,-0.070649,-0.056611,0.014801,-0.13687,-0.35843,-0.013581
-0.061189,0.061189,-0.13474,-0.11673,0.02182,-0.0010681,-0.31113,-0.010529
-0.085603,0.092622,-0.13931,-0.19577,-0.010224,0.032502,0.10575,0.025788
-0.10452,0.066682,-0.11124,-0.15702,-0.04654,0.0972,0.37339,0.041047
-0.060883,-0.027924,-0.051118,0.022126,-0.030671,0.021515,0.30594,0.068513
-0.042573,0.0041199,-0.082246,-0.065766,-0.08957,0.12192,-0.076753,0.061494
-0.05478,0.019379,-0.063935,-0.13779,-0.36027,0.066377,-0.19333,-0.0013733
-0.041657,-0.024262,-0.022431,-0.085298,-0.28244,0.085603,-0.077668,0.037079
-0.027619,-0.065766,-0.012055,-0.025177,0.080415,0.39292,0.13596,0.081331
-0.0068666,-0.10758,0.0022889,-0.034943,0.71214,-0.24735,0.215,0.011444
-0.016632,-0.090181,-0.021515,-0.044099,0.34714,-1.2535,-0.0013733,-0.029145
0.015717,-0.086824,-0.0096132,-0.12345,0.1854,0.079194,-0.053864,0.0047303
0.029145,-0.10239,-0.016632,-0.10483,-0.34195,0.60777,-0.17502,-0.020905
0.043183,-0.12039,-0.0041199,0.021515,-0.33005,0.1622,-0.25681,-0.069123
0.020905,-0.103,-0.042267,-0.053559,0.29618,0.072786,-0.027619,-0.051423
-0.028229,-0.034638,-0.068513,-0.15946,0.28031,-0.093233,0.025177,-0.02945
-0.041657,-0.0035096,-0.10269,-0.024872,-0.53605,0.27359,0.18509,0.068208
-0.015412,-0.0099184,-0.10269,0.0035096,-0.25376,-0.69169,0.062409,0.027619
-0.066987,0.039216,-0.11917,-0.22965,0.33249,-0.23728,0.030976,-0.034333
-0.10239,0.052033,-0.10819,-0.09659,0.40665,0.14084,-0.067597,-0.014191
-0.095674,0.077668,-0.12741,-0.091096,-0.4329,0.29068,-0.023651,0.074311
-0.063935,0.018158,-0.08011,-0.10452,-0.002594,0.35508,0.079194,0.070344
-0.045014,-0.0068666,-0.08011,-0.046845,0.24552,0.05417,0.093538,0.079194
-0.027008,-0.025788,-0.049897,-0.10971,0.16861,0.0041199,0.056611,0.066377
0.010529,-0.049897,-0.024567,-0.083772,0.058442,0.1091,-0.034943,0.013581
-0.00076295,-0.075532,-0.0044251,-0.062409,-0.47898,-0.11643,-0.041047,-0.064851
0.029755,-0.10788,0.0096132,-0.059663,-0.25467,-0.16403,0.23728,-0.022431
0.03006,-0.13016,0.010529,-0.011139,0.33341,0.17807,0.43748,0.053559
0.015717,-0.11612,-0.0047303,-0.020294,-0.29007,0.4509,0.41764,0.013886
0.023651,-0.11398,-0.022126,-0.06363,-0.057527,0.41032,0.32181,-0.033722
0.023041,-0.10788,-0.039216,-0.057527,0.12039,0.016022,-0.46952,-0.08835
-0.019684,-0.059663,-0.062104,-0.08072,0.39811,-1.2102,-1.5694,-0.15
-0.050813,-0.026093,-0.076143,-0.085603,0.23209,-0.37339,-0.25956,-0.10452
-0.084077,0.034638,-0.103,-0.12131,-0.13352,0.4332,0.33005,-0.02884
-0.073396,0.057832,-0.1207,-0.09781,0.073701,0.065766,0.15152,0.033722
-0.070039,0.062104,-0.12039,-0.10575,0.262,0.0090028,0.16648,0.06363
-0.073396,0.05417,-0.10849,-0.045624,0.12558,-0.018158,0.13596,0.070649
-0.070954,0.022736,-0.076143,-0.05539,-0.0035096,-0.027619,0.091402,0.10056
-0.079194,0.030365,-0.09659,-0.1091,-0.77989,0.019989,0.028229,0.072786
-0.082246,0.0206,-0.08011,-0.076448,-0.50278,0.25528,0.18051,0.10819
-0.063935,-0.036469,-0.034943,-0.078279,0.31449,0.1442,0.19028,0.12467
-0.023651,-0.094759,0.013581,-0.10269,0.20645,-0.23514,0.023957,0.074617
-0.018158,-0.074617,-0.020905,-0.065766,0.076143,-0.077668,-0.25559,0.031891
0.019989,-0.093843,-0.017853,-0.10056,0.0041199,0.36423,0.0090028,0.013275
0.035859,-0.12802,0.0206,0.024567,0.23758,0.099031,0.17105,0.002594
0.043793,-0.12253,-0.0062562,-0.026703,0.14054,-0.02182,0.052338,-0.031281
-0.0019837,-0.080415,-0.032502,-0.15335,-0.41611,0.439,-0.0065614,-0.072786
0.039521,-0.11185,-0.041047,-0.016022,-0.73075,0.15152,0.0050355,-0.030365
0.030976,-0.058137,-0.082856,-0.065766,0.10849,-0.23056,0.11887,-0.024567
-0.020905,-0.0383,-0.068513,-0.12253,0.59129,-0.66911,-0.041352,-0.053254
0.016938,-0.02945,-0.10025,0.052644,0.56199,-0.50492,-0.10239,-0.031281
-0.03769,0.05539,-0.14572,-0.1146,0.045624,0.23453,0.037385,-0.039521
-0.14023,0.10727,-0.13169,-0.19699,0.26413,-0.074311,0.050202,-0.035554
-0.12985,0.07248,-0.084688,-0.12985,-0.25132,0.20188,0.13382,0.10819
-0.081025,-0.0035096,-0.062715,-0.0028992,-0.15671,0.036774,0.12863,0.13413
-0.091402,0.025177,-0.092927,-0.096895,0.029755,-0.0019837,0.030365,0.066377
-0.086824,0.0019837,-0.066682,-0.16373,-0.13321,0.17594,-0.31205,0.029145
-0.047761,-0.034028,-0.034638,-0.072175,-0.012055,0.0044251,-0.20645,0.053559
-0.0035096,-0.05539,-0.0090028,-0.040742,-0.10025,0.093843,0.16281,0.066377
0.052338,-0.1268,-0.0044251,-0.047456,-0.014801,0.037079,0.08957,0.034333
0.062409,-0.14054,-0.002594,-0.036774,0.055695,-0.10819,0.020905,-0.027314
0.065461,-0.11887,-0.0086976,-0.030365,0.042878,-0.15671,0.078584,-0.069429
0.049592,-0.12284,-0.0035096,-0.034638,0.11673,0.1442,0.11307,-0.079194
0.02945,-0.098421,-0.018769,-0.061799,0.013581,0.43534,0.059663,-0.078889
0.005951,-0.059358,-0.059968,-0.082856,0.025483,-0.12863,0.0090028,-0.057221
-0.022736,-0.034943,-0.08011,-0.093843,0.02182,-0.15,0.041352,-0.032807
-0.013581,-0.019379,-0.091096,-0.075532,-0.15976,-0.0016785,-0.27512,-0.015106
-0.049287,0.019989,-0.10666,-0.066987,-0.041352,-0.025788,-0.38926,-0.022736
-0.077668,0.04593,-0.10208,-0.079805,-0.013581,0.069429,0.092012,-0.019684
-0.092927,0.06424,-0.11246,-0.10452,-0.074617,0.17411,0.14664,0.02182
-0.11643,0.060273,-0.088655,-0.1146,0.30777,0.15274,0.099641,0.062409
-0.11765,0.060578,-0.11673,-0.12894,0.32273,0.27176,0.091707,0.095979
-0.082856,0.026703,-0.078279,-0.097505,-0.086213,0.47105,0.11795,0.15457
-0.061494,-0.041962,-0.033112,-0.085603,-0.086824,-0.29984,-0.086213,0.14206
-0.022431,-0.073701,-0.021515,-0.033417,-0.20737,-0.96117,-0.13474,0.065156
0.0041199,-0.071565,-0.023651,-0.062715,-0.33219,-0.24125,0.017243,0.019074
0.012055,-0.095369,0.012055,-0.074922,0.56687,-0.34684,0.11612,-0.0090028
0.045014,-0.11765,0.0032044,-0.057527,0.1619,-0.019989,0.1622,0.027619
0.021515,-0.10666,-0.0077821,-0.040131,-0.49485,0.6685,0.13291,0.029755
0.053254,-0.11185,-0.034638,-0.034333,-0.12528,0.39048,0.083772,-0.0074769
0.013886,-0.10391,-0.02884,-0.092927,0.48508,-0.43015,-0.068818,-0.093233
-0.023346,-0.06424,-0.068513,-0.05478,0.24765,-0.16678,-0.13138,-0.074617
-0.057527,-0.0086976,-0.073396,-0.069123,-0.17288,0.5745,-0.077058,-0.047761
-0.06363,-0.01297,-0.092622,-0.10483,-0.2208,0.20127,0.03769,0.012665
-0.057832,0.023651,-0.10636,-0.10086,-0.12192,-0.017548,0.13931,0.064546
-0.059358,0.042267,-0.12345,-0.10086,-0.42039,-0.50767,-0.0013733,-0.0062562
-0.06363,0.034028,-0.1146,-0.06363,-0.11826,-0.1619,-0.071565,-0.042573
-0.073396,0.048066,-0.094453,-0.097505,0.30869,0.31724,-0.069123,-0.025483
-0.075532,0.037079,-0.086824,-0.12894,0.35782,0.029145,0.024262,0.009308
-0.04715,-0.010224,-0.052338,-0.096284,0.2623,0.093538,0.16648,0.046235
-0.024872,-0.0068666,-0.038605,-0.095674,0.074006,-0.041657,0.14542,0.029755
-0.011139,-0.052949,-0.018769,-0.05478,-0.040742,-0.00076295,-0.0206,0.041047
-0.0028992,-0.084993,-0.0022889,-0.046845,0.13809,0.056306,-0.18021,0.027924
0.0016785,-0.097505,0.00045777,-0.028534,0.13169,0.0022889,0.13413,0.030365
0.041962,-0.12589,0.00076295,0.034943,0.0035096,-0.12284,-0.025483,0.034028
0.026703,-0.10575,-0.016327,-0.1149,-0.44236,-0.03769,-0.076143,-0.015717
0.036164,-0.14084,0.002594,-0.14481,-0.33097,0.22202,-0.052644,-0.056611
-0.0019837,-0.070039,-0.037079,-0.010834,0.019684,0.30808,-0.055695,-0.051118
-0.0041199,-0.043488,-0.088655,-0.060883,0.1854,-0.20432,-0.14664,-0.018158
-0.037385,-0.0077821,-0.099031,-0.091096,0.12039,-0.099641,-0.055085,-0.04715
-0.070649,0.016022,-0.11154,-0.074311,0.14389,-0.11063,0.07187,-0.022736
-0.083772,0.038605,-0.12924,-0.1207,0.11398,-0.11978,0.067292,0.054475
-0.0795,0.04593,-0.13443,-0.11276,-0.08011,0.081331,0.05539,0.068513
-0.060883,0.016632,-0.051728,-0.014496,-0.064851,0.069734,0.02182,0.017853
-0.061494,0.0053407,-0.081941,-0.038605,-0.12619,0.35294,0.043793,0.023041
-0.075227,0.048066,-0.10666,-0.15274,0.019379,0.24369,0.23392,0.11887
-0.044404,0.017853,-0.060273,-0.068513,-0.2565,0.12009,0.23789,0.12711
-0.009308,-0.056306,-0.023041,-0.025177,0.084077,-0.22263,0.055085,0.069429
0.0016785,-0.092012,-0.015717,-0.10178,-0.011139,-0.58824,-0.1207,-0.0050355
0.03006,-0.10697,0.02182,-0.11063,-0.13779,0.16678,-0.019074,-0.018769
0.025788,-0.11276,-0.00045777,-0.039521,0.07248,-0.038911,-0.38895,-0.0972
0.019379,-0.12619,0.0013733,-0.026398,0.052033,-0.074617,-0.31205,-0.084993
0.027619,-0.12558,-0.019989,-0.025177,0.14298,0.06424,0.31785,0.0041199
0.027314,-0.084993,-0.038911,-0.11734,0.15946,0.041657,0.29343,-0.011444
-0.00076295,-0.040436,-0.062715,-0.067597,0.081941,-0.029145,-0.061189,-0.048371
-0.051728,-0.0074769,-0.060273,-0.068208,0.075837,-0.095369,-0.19821,-0.059968
-0.056001,-0.014191,-0.068818,-0.052338,0.053559,-0.087129,0.019989,-0.0022889
-0.07187,0.041962,-0.13962,-0.056611,0.0032044,-0.033417,-0.081636,0.079805
-0.056001,0.02121,-0.11887,-0.21927,0.34897,-0.030976,-0.08957,0.031891
-0.083772,0.027924,-0.10147,-0.068818,0.33188,0.59739,0.00045777,-0.016938
-0.10178,0.043488,-0.0972,-0.09659,-1.0402,0.85222,0.23697,0.065766
-0.075532,0.040742,-0.1146,-0.12284,-0.26291,0.12009,0.13657,0.080415
-0.075837,0.037385,-0.077974,-0.14267,0.68376,-0.64866,-0.016327,0.051728
-0.077363,-0.015412,-0.016327,-0.066377,-0.21836,-0.87846,-0.075227,0.043488
-0.0047303,-0.072175,-0.027619,0.053864,-0.39963,0.038605,0.01297,0.073396
0.012665,-0.10636,-0.015717,-0.0206,0.30472,0.057527,0.060273,0.051423
0.023651,-0.11795,-0.0053407,-0.10636,0.070039,0.103,0.090181,0.033112
0.017548,-0.1088,-0.0016785,-0.065766,0.065156,0.022126,0.30991,0.019379
0.025483,-0.1326,0.01236,-0.036774,0.058442,-0.014801,0.28977,-0.0022889
0.035248,-0.083772,-0.034333,-0.084688,0.067597,0.1088,0.018158,0.039521
0.053864,-0.1207,-0.015412,-0.053254,-0.061494,0.21012,-0.010224,-0.022126
-0.00045777,-0.066987,-0.062104,-0.051728,-0.30961,0.18997,-0.3154,-0.059968
0.0016785,-0.041962,-0.092317,-0.005951,-0.10544,-0.11063,-0.51896,-0.076143
-0.068208,0.042267,-0.11551,-0.10147,0.57908,-0.43473,-0.21561,-0.11734
-0.11124,0.073396,-0.10605,-0.14603,0.43534,0.22354,0.016022,-0.091402
-0.073091,0.025177,-0.094148,-0.05478,-0.23667,0.9041,0.24094,0.050507
-0.087739,0.067903,-0.12711,-0.085298,0.0016785,0.37552,0.15854,0.073701
-0.058747,0.040742,-0.1146,-0.10575,0.33707,-0.36362,-0.030671,0.03769
-0.068208,0.023957,-0.078279,-0.12192,0.13596,-1.1629,-0.10452,0.023957
-0.037079,-0.018769,-0.048981,-0.059358,-0.0096132,-0.81773,0.034333,0.062409
-0.027619,-0.019684,-0.058137,-0.088655,0.17838,0.12955,0.18021,0.08011
-0.0022889,-0.049897,-0.030976,-0.077058,-0.13016,0.42832,0.15671,0.04593
0.016938,-0.089876,0.014496,-0.066377,-0.77775,0.31846,0.10636,0.0050355
0.034943,-0.11398,0.010529,-0.099336,-0.79057,0.31296,0.2153,-0.048371
0.034333,-0.13016,-0.015412,0.002594,-0.19486,0.14542,0.10575,-0.050813
0.005951,-0.098421,-0.0028992,-0.0383,0.2858,-0.069734,-0.41428,-0.10025
0.013581,-0.094453,-0.017548,-0.044099,0.30442,-0.27268,-0.13809,-0.094453
0.0053407,-0.10086,-0.039826,-0.053254,0.15579,0.067292,-0.0053407,-0.044404
0.0016785,-0.073701,-0.046845,-0.04654,0.41154,0.058747,-0.42893,-0.055695
-0.053559,-0.0068666,-0.11704,-0.13169,0.50858,-0.031891,0.096284,0.0090028
-0.09781,0.018158,-0.1088,-0.13718,-0.37797,-0.045319,0.12436,0.067903
-0.10178,0.05539,-0.12161,-0.10575,-0.02121,0.16739,0.086213,0.11978
-0.10819,0.065156,-0.12375,-0.0795,0.15457,0.47379,0.18021,0.14023
-0.082246,0.051423,-0.088655,-0.084688,0.074006,-0.16861,0.10025,0.13993
-0.064851,0.029145,-0.098116,-0.16281,0.075837,-0.23636,0.044404,0.13779
-0.07126,0.025788,-0.074922,-0.087434,-0.6627,0.30411,-0.057221,0.085603
-0.0032044,-0.029755,-0.031891,-0.048371,-0.44297,-0.2504,-0.028229,0.085603
-0.00076295,-0.048371,-0.034638,-0.071565,0.56596,-0.26261,0.029755,0.018769
0.031281,-0.087434,-0.01297,-0.018463,-0.21256,0.5391,0.066682,-0.0019837
0.051728,-0.11978,0.0071717,-0.00076295,-0.25925,-0.0038148,0.0068666,-0.044404
0.017548,-0.10788,-0.0053407,-0.066682,0.67887,-0.23728,-0.061799,-0.10452
-0.023041,-0.094759,-0.0096132,-0.08835,-0.084993,0.12863,0.041657,-0.060578
-0.014496,-0.091707,-0.016022,-0.07248,0.30838,0.28458,0.11307,0.010834
0.017853,-0.11185,-0.017548,-0.02884,0.093233,0.42863,0.12589,0.02121
0.002594,-0.049592,-0.081331,-0.069123,-0.0383,-0.2562,-0.11612,-0.034943
-0.016327,-0.024262,-0.061189,-0.036774,0.094759,-0.80034,-0.12375,-0.052644
-0.0080873,-0.041962,-0.074311,0.0090028,0.048981,0.10269,0.035248,-0.047456
-0.027314,0.016022,-0.1387,-0.19577,0.076448,-0.010834,-0.025483,-0.031586
-0.072175,0.062409,-0.10941,-0.19364,-0.052033,0.081636,0.055085,-0.034943
-0.095369,0.07126,-0.10208,-0.17014,-0.23087,0.1561,0.023041,0.0032044
-0.087129,0.019074,-0.08011,-0.056916,-0.052949,-0.015412,0.028229,0.0016785
-0.032807,0.026398,-0.10269,-0.048676,-0.025483,-0.0016785,-0.038605,0.016022
0.005951,-0.0041199,-0.072175,-0.03769,-0.012055,-0.0062562,-0.0013733,0.042267
-0.0010681,-0.020905,-0.060883,-0.057527,-0.022431,0.019989,0.069123,0.049592
-0.015106,-0.048981,-0.02182,-0.13504,-0.0022889,0.028534,0.034028,0.033722
-0.028229,-0.073396,-0.005951,-0.080415,-0.014801,0.012665,0.014801,0.0056458
-0.034943,-0.10025,0.0047303,-0.061799,0.05417,-0.057221,0.024872,-0.0041199
-0.040742,-0.09659,-0.0068666,-0.031586,0.17533,-0.14633,-0.023346,-0.01297
-0.036469,-0.10758,-0.010834,-0.04654,0.27329,-0.16587,-0.01297,-0.0056458
-0.015412,-0.10971,-0.027008,-0.027314,0.14694,-0.14633,0.017853,0.009308
-0.012665,-0.10269,-0.032502,-0.016632,-0.76921,0.30045,0.047761,-0.01236
-0.024262,-0.061799,-0.052949,-0.095674,-0.25498,0.08072,0.14023,0.0071717
-0.045014,-0.019684,-0.0795,-0.031281,0.68284,0.8397,0.29038,0.062104
-0.073091,0.034028,-0.11551,-0.11582,-0.31174,0.53391,0.38773,0.1207
-0.031281,0.0056458,-0.11765,-0.11276,-0.076143,-0.16403,0.093843,0.092317
-0.057832,0.050202,-0.11063,-0.11093,0.076448,-0.66911,-1.0091,-0.035554
-0.072175,0.051728,-0.099641,-0.12131,-0.0044251,-0.3093,-0.70024,-0.015412
-0.065766,0.092012,-0.12894,-0.10849,0.10758,0.023346,0.36027,0.074006
-0.058137,0.010529,-0.078279,-0.11765,0.014801,-0.063325,0.10178,0.065461
-0.0074769,-0.048371,-0.039216,-0.043183,0.059052,0.0383,0.090791,0.0795
0.020294,-0.04654,-0.061189,-0.059663,0.2153,0.026398,0.081636,0.047456
0.0053407,-0.072786,-0.016022,-0.069734,0.12772,-0.0016785,0.059663,-0.010529
0.025177,-0.098116,0.0013733,-0.053254,-0.016632,0.022431,0.08835,-0.014801
0.015717,-0.11551,0.0053407,-0.075837,-0.35935,0.023041,0.077363,-0.03769
0.0080873,-0.10422,-0.0047303,-0.066682,-0.42222,0.040131,0.047456,-0.033417
0.023957,-0.10391,-0.010834,-0.077363,0.10147,0.016938,0.019074,-0.031586
0.022736,-0.10452,-0.017548,-0.011139,0.1561,0.0038148,-0.014496,-0.073701
0.023651,-0.090181,-0.036774,-0.010529,0.081636,0.048676,0.039521,-0.082246
-0.012055,-0.041657,-0.069429,-0.080415,0.12253,0.080415,0.071565,-0.067597
-0.053254,0.009308,-0.10056,-0.10941,0.1268,0.11398,0.041352,-0.012665
-0.077974,0.041352,-0.12436,-0.099641,0.11887,-0.11002,-0.023346,0.023651
-0.065461,0.0065614,-0.07126,-0.061799,0.013581,0.32578,0.045624,0.068208
-0.089876,0.024567,-0.10636,-0.069734,-0.32029,0.63645,0.08957,0.03769
-0.068208,0.0206,-0.11246,-0.077668,-0.031281,-0.020905,0.099641,0.039521
-0.091096,0.074006,-0.11734,-0.15549,0.49699,-0.94652,0.027924,0.043183
-0.093843,0.070344,-0.098421,-0.215,-0.019684,-0.7866,-0.45365,0.0013733
-0.0383,-0.017548,-0.043793,-0.02884,-0.31693,0.58732,-0.22538,0.075837
-0.0083925,-0.059358,-0.027619,0.051728,0.12406,0.031281,0.12497,0.005951
0.019989,-0.088655,0.014496,-0.045319,0.046845,-0.70359,0.04593,-0.033417
0.038911,-0.11002,-0.033112,-0.17716,-0.56443,0.37034,0.28458,0.074617
0.034333,-0.13565,0.013275,-0.04715,0.095674,0.19577,0.15335,0.048066
0.030976,-0.13748,-0.01236,-0.052949,0.15915,0.15396,0.17746,0.053559
0.0074769,-0.066682,0.00045777,-0.069123,0.11429,0.088655,0.25589,-0.00045777
0.026093,-0.092317,-0.005951,0.018769,0.12467,0.034333,-0.18631,-0.075837
0.036164,-0.081941,-0.094453,-0.074311,-0.074922,0.081636,-0.75975,-0.092317
-0.0044251,-0.063325,-0.051728,-0.13046,0.11643,-0.27359,-0.22873,-0.10758
-0.031281,-0.018158,-0.08957,-0.0972,0.12253,-0.061799,0.10269,-0.074922
-0.081941,0.049287,-0.13046,-0.087129,-0.031586,0.092317,0.077668,-0.025177
-0.099947,0.061799,-0.12284,-0.081025,-0.011444,0.039521,0.10056,-0.010529
-0.089876,0.025483,-0.081025,-0.037385,-0.033417,0.05539,0.063935,-0.014496
-0.099031,0.059358,-0.1091,-0.12497,0.0010681,0.038911,0.069123,0.033112
-0.10819,0.043793,-0.10452,-0.1384,-0.014801,0.04654,0.072175,0.093843
-0.064851,0.0074769,-0.058137,-0.072175,-0.083467,0.065156,0.10178,0.11551
-0.049592,-0.028229,-0.042573,-0.061494,-0.015412,-0.051423,0.11673,0.094759
-0.041657,-0.04654,-0.024567,-0.09659,-0.12833,-0.14481,0.05539,0.062409
-0.012665,-0.078889,-0.012665,-0.052338,-0.41611,0.26566,0.1149,0.065461
0.021515,-0.11276,-0.012665,-0.011139,-0.26474,0.53574,0.012055,0.037079
0.018769,-0.098726,-0.0056458,-0.06302,0.5388,-0.085298,-0.19852,0.015412
0.019989,-0.10391,0.0019837,-0.095369,0.56413,-0.76066,-0.082246,0.0056458
0.039521,-0.1149,-0.016022,-0.036164,0.12894,-0.17441,0.050507,0.005951
0.031891,-0.094453,-0.022126,-0.038911,-0.022126,0.27237,0.10208,-0.018463
0.015717,-0.087434,-0.074311,-0.033417,-0.066987,0.33982,0.057221,-0.047761
-0.0071717,-0.033417,-0.091402,-0.092317,0.093538,0.20432,0.13077,-0.023041
-0.049592,0.017243,-0.10941,-0.085908,0.62333,-0.18723,0.06363,-0.0013733
-0.076753,0.05417,-0.12253,-0.092927,0.18692,-0.13657,0.032197,0.02182
-0.083467,0.037385,-0.12039,-0.12161,-0.37339,0.16373,0.19913,0.029145
-0.12039,0.065461,-0.10361,-0.10636,-1.0259,0.37827,0.19883,0.027314
-0.10971,0.067292,-0.10361,-0.12375,-0.47929,-0.059968,-0.3032,0.029755
-0.089265,0.037079,-0.084382,-0.09659,0.19699,-0.17197,-0.17258,0.063325
-0.055085,-0.0038148,-0.056916,-0.10239,0.27909,-0.045319,0.0053407,0.027314
-0.017243,-0.059968,-0.033112,-0.0074769,0.55589,-0.21256,-0.31296,-0.025483
-0.0019837,-0.056306,-0.039216,-0.072786,0.052338,0.016632,-0.34043,0.0077821
-0.002594,-0.060883,-0.00076295,-0.12039,-0.24308,0.0071717,0.070649,0.070344
0.019989,-0.11734,0.016327,-0.04654,-0.0050355,-0.020294,0.12833,0.037385
0.050202,-0.15824,0.019989,0.019074,0.081331,-0.049897,0.11582,-0.029145
0.055695,-0.093538,-0.039216,-0.073396,0.08835,-0.13199,0.025177,-0.047761
0.043488,-0.1146,-0.032502,-0.064546,-0.091707,0.08896,0.017243,-0.019074
0.020905,-0.077363,-0.037995,-0.048371,0.28397,-0.009308,0.024262,-0.0383
0.019989,-0.073396,-0.044404,-0.06302,0.2623,0.005951,0.00045777,-0.066987
0.016938,-0.066072,-0.052338,-0.030976,-0.50858,0.64408,0.02182,-0.11521
-0.061494,0.022736,-0.11978,-0.078889,-0.18418,0.64836,0.0096132,-0.0972
-0.087434,0.053254,-0.12924,-0.11551,0.35355,0.43778,0.08011,0.015106
-0.065461,0.03769,-0.12528,-0.16312,0.16648,0.080415,0.30503,0.10788
-0.09781,0.089265,-0.10971,-0.14908,-0.45853,-1.0835,0.21195,0.051423
-0.08896,0.058137,-0.080415,-0.057527,-0.23667,-0.37186,0.23514,0.075227
-0.076143,0.017548,-0.087434,-0.074922,0.078584,-0.67887,-0.17838,0.08072
-0.08835,-0.010224,-0.056916,-0.052644,0.09781,-0.35691,-0.47349,0.056611
-0.017548,-0.046845,-0.018769,-0.041352,0.099336,0.4686,-0.3859,0.060578
0.015106,-0.092622,-0.0065614,-0.075227,0.1503,0.41917,0.035859,0.029755
0.011444,-0.11093,-0.0096132,-0.065156,0.13931,0.28885,0.23087,0.032807
0.0053407,-0.079805,-0.023651,-0.13321,0.38102,-0.2388,0.12528,-0.014801
0.025788,-0.13596,0.0047303,-0.0383,-0.2446,-0.61479,0.053254,-0.073091
0.011749,-0.11276,-0.012665,0.012665,-0.034333,0.11704,0.0080873,-0.078279
-0.0096132,-0.082551,-0.032197,-0.055085,0.17014,0.20737,-0.042573,-0.086213
-0.0041199,-0.082856,-0.048981,-0.11276,-0.34348,0.14664,0.0080873,-0.075227
-0.017548,-0.046235,-0.085298,-0.040131,-0.24002,0.18631,0.031586,-0.083467
-0.047761,0.0071717,-0.10208,-0.095674,0.099947,0.094759,-0.18082,-0.067903
-0.061189,0.028229,-0.099336,-0.16556,-0.12467,-0.10178,-0.082856,-0.024567
-0.074922,0.031891,-0.10971,-0.069734,-0.11307,-0.07248,0.092012,0.068513
-0.092317,0.053864,-0.12528,-0.077058,0.14817,0.005951,0.039216,0.13535
-0.095369,0.053254,-0.098421,-0.061494,0.051423,-0.009308,-0.017243,0.16068
-0.060883,0.026398,-0.090486,-0.057527,0.041047,-0.021515,0.070649,0.16464
-0.054475,-0.013581,-0.052338,-0.098421,-0.053254,0.095064,0.11795,0.14817
-0.075227,0.040436,-0.085298,-0.17319,-0.12985,0.08957,0.096895,0.11246
-0.053864,-0.043488,-0.022126,-0.073396,0.11673,-0.18112,0.042878,0.094759
0.023651,-0.12467,0.0065614,-0.005951,0.25681,-0.096284,0.010834,0.075227
0.065766,-0.1564,0.023957,-0.067597,0.067903,0.42039,0.054475,-0.022126
0.067292,-0.15427,-0.0013733,-0.059052,0.12619,-0.121,0.014191,-0.10727
0.08011,-0.1561,0.019684,-0.00076295,0.09659,-0.16373,-0.053559,-0.14572
0.026093,-0.065766,-0.057221,-0.041657,-0.2089,0.48692,-0.0056458,-0.11582
-0.0053407,-0.038911,-0.03006,-0.10666,-0.15427,0.21592,0.064546,-0.077058
-0.00015259,-0.046235,-0.060883,-0.063325,0.15824,-0.21012,0.089876,-0.030671
0.0013733,-0.066377,-0.052033,-0.032502,0.052033,0.061189,0.081636,-0.0056458
-0.044709,0.015717,-0.12284,-0.10636,-0.073091,0.0013733,-0.056916,-0.045014
-0.093233,0.08011,-0.13443,-0.11398,0.092012,-0.40665,-0.28519,-0.025483
-0.1265,0.087739,-0.1207,-0.0972,0.094453,-0.34897,-0.16587,0.013886
-0.10971,0.060578,-0.11093,-0.10147,0.026093,0.0080873,0.15885,0.10544
-0.10452,0.039826,-0.090791,-0.14939,-0.095369,0.48936,0.17838,0.10056
-0.092927,0.042267,-0.092927,-0.066987,-0.31754,0.19394,0.051728,0.094148
-0.030365,-0.023957,-0.0383,-0.050507,-0.14389,-0.18601,0.020294,0.096895
-0.011444,-0.084077,-0.018769,-0.040742,0.5861,-0.04593,0.0032044,-0.0083925
-0.035554,-0.022431,-0.044709,-0.11887,0.066682,0.074922,0.027619,-0.022736
0.00045777,-0.08072,-0.0053407,-0.103,-0.46036,0.14786,0.066682,0.027314
0.02945,-0.1146,-0.00076295,-0.031281,0.15396,0.020905,0.080415,0.010529
0.063325,-0.14145,0.002594,-0.02945,0.041962,-0.011139,0.11826,-0.038605
0.051118,-0.15824,0.0038148,-0.019074,0.06363,-0.011749,0.2092,-0.061494
0.031281,-0.11002,-0.024262,-0.03769,0.085908,-0.1033,0.14939,-0.10117
0.0077821,-0.061799,-0.055695,-0.094453,0.023041,-0.05417,-0.34562,-0.094453
-0.038605,-0.016327,-0.093538,-0.10483,-0.11429,0.26566,-0.88792,-0.10361
-0.041047,-0.019379,-0.065766,-0.016938,-0.19028,0.35233,0.10666,0.0086976
-0.018158,-0.024567,-0.090791,-0.086519,0.12619,-0.26108,0.19791,0.049897
-0.083772,0.049287,-0.13443,-0.1738,0.48753,-0.68193,-0.041352,0.02121
-0.10056,0.081941,-0.12772,-0.12039,-0.053864,0.074922,0.097505,0.087434
-0.10208,0.042267,-0.098116,-0.2034,-0.13413,0.18448,0.09781,0.11643
-0.078279,0.015717,-0.052644,0.039521,-0.036469,0.021515,0.074311,0.094453
-0.079194,0.014496,-0.10147,-0.027008,-0.0074769,0.025483,0.061189,0.1091
-0.059052,0.015717,-0.077058,-0.19944,-0.042878,0.14939,0.04654,0.067903
-0.016632,-0.034638,-0.043793,-0.090791,-0.24826,0.32242,0.085298,0.062104
0.023346,-0.099336,0.0056458,0.0019837,-0.059663,0.070954,0.089876,0.043183
0.039826,-0.13199,0.0096132,-0.028229,0.030365,-0.015717,0.085298,-0.024872
0.027619,-0.11673,0.022431,-0.078889,0.10605,-0.6453,-0.12436,-0.099336
0.044099,-0.11978,0.011444,0.026703,0.066072,-0.061494,-0.13016,-0.093233
0.029755,-0.1146,-0.02182,-0.062409,0.057527,0.1091,-0.0010681,-0.056611
0.016938,-0.096284,-0.041657,-0.096284,0.10849,-0.094759,0.059663,-0.036469
0.0047303,-0.062715,-0.052949,-0.084993,0.013275,0.017243,0.092012,-0.0035096
-0.0062562,-0.041657,-0.06424,-0.08896,-0.40635,0.29221,0.10544,0.0053407
-0.029145,-0.017548,-0.097505,-0.09659,-0.48356,0.2742,-0.011139,-0.023041
-0.076143,0.035248,-0.12131,-0.081636,0.12589,-0.17868,-0.10056,-0.045319
-0.093233,0.057832,-0.12528,-0.10391,0.31601,0.12985,-0.026398,0.030976
-0.10208,0.059663,-0.12222,-0.10117,0.40909,0.067597,-0.033417,0.057832
-0.10758,0.049287,-0.082856,-0.097505,0.61143,-0.50431,-0.11337,0.012665
-0.076753,0.039521,-0.0972,-0.075837,-0.38041,0.29435,0.068513,0.050202
-0.045624,-0.009308,-0.058137,-0.043183,-0.61662,0.57481,0.25193,0.12161
-0.035248,-0.011749,-0.049897,-0.093233,0.26627,-0.48844,0.062104,0.10544
-0.036469,-0.051423,-0.027619,-0.11734,0.66361,-0.28183,0.12924,0.076753
0.0074769,-0.10758,-0.0047303,0.0032044,0.36118,0.15976,0.2269,0.082856
0.021515,-0.10361,-0.0019837,0.0071717,-0.21012,0.065156,-0.14603,0.0032044
0.048371,-0.13138,0.0062562,-0.14572,-0.22019,0.41672,-0.29892,-0.029145
0.070649,-0.14206,-0.0077821,-0.091402,-0.08072,0.18845,-0.013275,-0.03769
0.023041,-0.092317,-0.027619,-0.048981,-0.10758,-0.89006,-0.39994,-0.10391
0.013275,-0.098726,-0.025788,-0.068513,-0.063325,-0.11368,0.065156,-0.065461
-0.0065614,-0.052338,-0.085298,-0.081636,0.41825,0.26017,0.2855,-0.081636
-0.05478,-0.0047303,-0.073091,-0.10361,0.11063,0.093233,0.14847,-0.076143
-0.073091,0.015412,-0.094148,-0.060273,-0.41978,0.39109,0.26322,-0.02884
-0.095674,0.049897,-0.12863,-0.08896,-0.59403,0.33707,-0.16617,0.01297
-0.11643,0.098421,-0.14328,-0.16678,0.061799,0.012665,-0.31327,-0.00045777
-0.11551,0.034333,-0.075837,-0.093843,0.52445,-0.79301,0.079194,0.058137
-0.066987,0.023651,-0.099641,-0.018769,0.30961,-0.15366,-0.060578,0.10819
-0.044709,0.0019837,-0.077363,-0.078584,-0.27146,0.63066,0.12375,0.08072
-0.016327,-0.04593,-0.050507,-0.11246,-0.58518,0.22782,-0.029145,0.03006
-0.013275,-0.022431,-0.061189,-0.068818,-0.054475,-0.14298,-0.18173,0.031891
0.0090028,-0.058137,-0.005951,-0.03769,0.44083,-0.78019,-0.068818,0.0013733
0.039521,-0.12467,0.013275,0.005951,0.24979,-0.14511,0.0010681,-0.0032044
0.026093,-0.097505,-0.023651,-0.13382,0.3679,-0.14603,0.059968,-0.039521
0.017243,-0.098726,-0.0062562,-0.099641,-0.46647,0.034028,0.10147,-0.012665
-0.009308,-0.074006,-0.017548,-0.08957,-0.64073,0.262,0.14786,-0.015717
-0.0022889,-0.099641,0.0022889,-0.052644,-0.045319,0.5098,0.056306,0.0035096
0.0090028,-0.095369,-0.045014,-0.018158,0.16098,0.083162,0.050507,0.0090028
-0.0096132,-0.053864,-0.070649,-0.060273,0.17227,-0.10239,0.10971,-0.038605
-0.036774,0.005951,-0.092622,-0.090791,0.13169,0.034333,0.12222,-0.037079
-0.097505,0.044404,-0.1207,-0.095064,0.067597,0.096895,0.10178,-0.019379
-0.11521,0.040742,-0.11826,-0.066987,0.0077821,0.30442,0.2031,0.051728
-0.10544,0.039521,-0.10483,-0.12589,0.0090028,0.21958,0.18784,0.10483
-0.10452,0.030365,-0.10147,-0.12192,0.012665,0.18418,0.18265,0.10758
-0.083772,0.020294,-0.082246,-0.040742,0.066072,-0.68559,-0.11948,0.093843
-0.076143,0.028534,-0.091402,-0.074311,0.088045,-0.66117,-0.94835,0.043793
-0.052033,-0.0074769,-0.056611,-0.11093,-0.14725,0.7216,-0.1677,0.042267
-0.023041,-0.045319,-0.016938,-0.058747,0.039826,-0.045319,0.3917,0.041352
0.016938,-0.092317,-0.014191,-0.030365,0.088045,-0.20615,0.16617,0.0096132
0.034028,-0.10483,0.013275,-0.048981,0.037995,0.079805,-0.037079,-0.010834
0.066377,-0.16281,0.018769,-0.011139,0.083467,-0.005951,-0.051423,-0.052949
0.036774,-0.11978,-0.021515,-0.099641,0.073701,0.048676,-0.045624,-0.066072
0.051118,-0.11643,-0.020905,-0.025483,-0.043488,0.103,0.037385,-0.060578
0.052033,-0.11856,-0.01297,-0.072175,-0.12772,0.044404,0.016022,-0.066987
0.027924,-0.056611,-0.070344,-0.13046,0.091402,-0.19913,-0.014496,-0.043793
-0.01297,-0.022431,-0.084993,-0.085298,0.0019837,-0.088045,0.037385,-0.0044251
-0.031586,-0.0028992,-0.10086,-0.044099,-0.24308,0.22965,0.04593,-0.0071717
-0.067292,0.023346,-0.099031,-0.1091,0.18723,-0.11856,-0.0019837,-0.012055
-0.12375,0.082246,-0.11826,-0.16129,0.52232,0.060578,0.039216,0.023957
-0.11734,0.063935,-0.11551,-0.12314,-0.20218,0.30777,0.14145,0.10636
-0.090181,0.036164,-0.095979,-0.034638,-0.099641,-0.094453,0.052338,0.077974
-0.082856,0.027924,-0.08011,-0.062715,0.025483,-0.06302,-0.02884,0.043488
-0.050813,0.0071717,-0.07248,-0.10361,0.069734,0.00076295,-0.08011,0.019074
-0.029755,-0.025788,-0.069123,-0.087129,-0.38468,0.26017,0.0065614,0.027619
-0.022431,-0.070649,-0.016327,-0.046845,-0.27451,0.031281,0.033112,0.051118
-0.014801,-0.073396,-0.0090028,-0.079194,0.18631,-0.11582,-0.061189,0.032807
0.027008,-0.10544,0.018769,-0.057527,0.10819,-0.053254,-0.011139,0.035554
0.050202,-0.10086,-0.013886,-0.051728,0.041962,-0.083162,0.02182,-0.021515
0.037385,-0.10758,-0.0047303,-0.041352,-0.045014,-0.033722,0.017243,-0.056611
0.044099,-0.12284,-0.0074769,-0.00076295,0.11215,-0.044404,-0.010529,-0.043183
0.01297,-0.084382,-0.036469,-0.081636,0.3563,0.048371,-0.045014,-0.062104
-0.0086976,-0.069429,-0.04715,-0.064546,-0.14145,0.2504,0.072175,-0.025177
-0.043183,-0.010529,-0.099031,-0.08072,-0.011444,0.0053407,0.10208,-0.011139
-0.067597,0.0096132,-0.10544,-0.07126,0.10086,-0.065461,0.092622,0.037995
-0.061799,-0.0086976,-0.10239,-0.079194,0.084688,-0.093538,0.055085,0.065156
-0.074922,0.040131,-0.082856,-0.11948,0.047761,-0.13565,-0.077668,0.02884
-0.083162,0.059358,-0.12619,-0.12314,-0.36973,0.21439,-0.10636,0.0019837
-0.069734,0.050202,-0.11215,-0.095369,-0.039826,-0.03006,-0.047761,-0.0056458
-0.088045,0.048066,-0.086519,-0.18967,0.37583,-0.014191,0.063935,0.035248
-0.074922,0.019989,-0.066987,-0.10086,-0.24949,0.27909,0.14237,0.10208
-0.030976,-0.049592,-0.034028,-0.034638,-0.44297,0.13321,0.034943,0.068208
0.013275,-0.090181,-0.026703,-0.032502,-0.327,0.10575,0.0056458,0.017548
0.014801,-0.067903,-0.018158,-0.058137,0.12772,0.19181,0.011444,-0.0050355
0.043183,-0.14847,0.023346,0.03006,0.74418,-0.30381,-0.05539,-0.022736
0.045014,-0.10086,-0.010224,-0.14786,0.39536,-0.36301,-0.012055,-0.024262
0.028229,-0.11429,-0.0096132,-0.045319,0.1149,-0.88396,-0.084077,-0.070954
0.018158,-0.094453,-0.0096132,-0.075227,-0.18112,-0.13199,-0.071565,-0.077974
0.0035096,-0.080415,-0.031586,-0.10483,-0.18631,0.87327,0.029145,-0.049592
-0.014496,-0.0383,-0.082856,-0.036774,-0.11154,0.08835,0.065461,0.017548
-0.035859,-0.023957,-0.092012,-0.083772,0.27451,-0.077058,0.084077,0.0056458
-0.04715,0.0074769,-0.1033,-0.064851,0.1622,0.28763,0.16312,0.023957
-0.070649,0.037385,-0.11093,-0.068208,-0.49271,0.19242,0.10361,0.026703
-0.10788,0.061799,-0.10147,-0.10941,-0.34257,-0.14023,-0.043488,0.017243
-0.12802,0.076753,-0.12131,-0.099031,0.086213,-0.38895,-0.0032044,0.084688
-0.10605,0.038605,-0.083162,-0.069429,-0.074922,0.09659,0.0074769,0.11032
-0.065766,0.024567,-0.0795,-0.089265,0.078584,0.099336,-0.29557,0.075227
0.0038148,-0.052033,-0.041657,-0.059663,0.3444,0.37125,-0.098421,0.085603
-0.0032044,-0.052644,-0.050202,-0.061799,-0.066987,0.2678,0.22873,0.063935
-0.018769,-0.048066,-0.0047303,-0.14481,0.16709,-0.18448,0.07248,-0.0065614
-0.018463,-0.09659,0.019379,-0.05539,0.20706,-0.60533,-0.047761,-0.016938
-0.00015259,-0.11002,-0.030365,-0.062409,-0.077363,0.0071717,0.06363,0.02182
0.034028,-0.13657,0.010834,-0.010834,0.13809,0.10727,0.070649,0.0056458
0.017243,-0.11887,0.0022889,-0.0065614,-0.10239,0.028534,-0.10025,-0.04715
0.012665,-0.098116,-0.014191,-0.019379,-0.28458,0.067597,-0.096284,-0.071565
