-0.015717,-0.086824,-0.029145,-0.065766,0.067292,-0.0086976,-0.0053407,-0.054475
-0.014191,-0.070649,-0.043183,-0.068513,0.039216,0.0053407,0.005951,-0.059358
0.0047303,-0.044099,-0.070039,-0.069123,0.012665,0.035554,0.015717,-0.054475
0.01297,-0.0068666,-0.098116,-0.078889,0.020905,0.029145,0.023651,-0.042573
-0.014801,0.0022889,-0.096284,-0.084382,0.022736,0.00076295,-0.00076295,-0.048371
-0.058137,0.040131,-0.10971,-0.10086,0.0074769,-0.0090028,-0.012665,-0.02945
-0.076143,0.041657,-0.087129,-0.14206,-0.022431,-0.005951,0.013886,0.027619
-0.081636,0.031586,-0.097505,-0.10666,-0.047456,-0.0019837,0.045319,0.09659
-0.062715,0.051728,-0.093538,-0.09659,-0.041962,-0.0022889,0.03006,0.14176
-0.068208,0.043793,-0.084688,-0.09659,-0.022431,-0.005951,0.029145,0.14054
-0.056001,0.012055,-0.078584,-0.093233,-0.023041,0.017243,0.041657,0.11673
-0.062715,-0.0056458,-0.058137,-0.083772,-0.025177,0.043488,0.051423,0.099947
-0.053864,-0.045624,-0.013886,-0.059052,-0.0047303,0.049287,0.056306,0.059968
-0.025483,-0.093538,0.0038148,-0.045319,0.018158,0.060273,0.025483,0.002594
0.0071717,-0.13626,-0.00045777,-0.040131,0.035248,0.032197,0.026703,-0.017548
0.052949,-0.13901,-0.01236,-0.045319,0.03769,0.01236,0.058137,-0.063935
0.051423,-0.12436,-0.0086976,-0.030976,0.045319,-0.0019837,-0.00015259,-0.12558
0.047761,-0.11582,-0.019074,-0.035248,0.057527,0.0053407,0.017853,-0.11398
0.031586,-0.098116,-0.052644,-0.058747,0.064546,-0.0013733,-0.066987,-0.087129
0.0086976,-0.052338,-0.064851,-0.086824,0.053559,-0.02121,-0.31327,-0.067597
-0.018158,-0.0028992,-0.095369,-0.087129,0.03006,-0.020905,-0.12558,-0.053559
-0.059052,0.031891,-0.0972,-0.092317,0.010834,-0.018769,0.041962,-0.027314
-0.078889,0.054475,-0.11154,-0.10758,-0.0068666,-0.012055,0.05417,0.015717
-0.094148,0.043183,-0.11856,-0.11521,-0.025177,-0.0022889,0.02884,0.064546
-0.092012,0.045319,-0.098421,-0.09781,-0.0383,0.017243,0.035554,0.13596
-0.060578,0.031586,-0.087434,-0.10361,-0.04593,0.022431,0.037995,0.121
-0.045014,0.031281,-0.082246,-0.11032,-0.028534,0.01236,0.035554,0.082246
-0.022736,-0.024567,-0.044404,-0.11032,-0.023651,0.0041199,0.056611,0.073701
0.0028992,-0.075837,0.00076295,-0.040131,-0.0068666,0.0071717,0.034943,0.032807
0.0019837,-0.083772,-0.0080873,-0.036469,0.018769,0.015412,0.011139,0.014801
-0.0053407,-0.079805,-0.013886,-0.060578,0.035248,0.034638,0.020294,-0.022126
0.0041199,-0.062104,-0.0035096,-0.042878,0.014191,0.041352,0.029755,-0.072786
0.03006,-0.10147,-0.019684,-0.041047,0.037995,0.014191,0.030976,-0.06363
0.012665,-0.10666,-0.04593,-0.060883,0.06363,-0.013886,0.0077821,-0.065461
0.0013733,-0.10758,-0.036469,-0.061189,0.050202,0.002594,0.0010681,-0.07187
0.0047303,-0.10605,-0.049897,-0.050202,0.044404,0.0086976,0.013886,-0.049897
-0.026703,-0.05417,-0.06302,-0.069123,0.049592,0.0041199,0.0053407,-0.035554
-0.046845,-0.036469,-0.073396,-0.099641,0.032197,0.0050355,0.0053407,0.018158
-0.059052,-0.014496,-0.081941,-0.091707,-0.0053407,0.010224,0.014801,0.060273
-0.07187,0.0041199,-0.12711,-0.1091,-0.022431,-0.0071717,-0.00045777,0.067292
-0.091402,0.095979,-0.15732,-0.12467,-0.037079,-0.019989,-0.0010681,0.075532
-0.060578,0.07126,-0.103,-0.11093,-0.051423,0.0032044,0.033112,0.066682
-0.034943,0.044404,-0.082246,-0.095064,-0.05539,0.016938,0.034943,0.066072
-0.057832,0.015106,-0.054475,-0.091402,-0.04593,0.0044251,0.026093,0.074006
-0.040742,-0.043793,-0.038911,-0.069429,-0.028534,0.01297,0.02884,0.041047
-0.0062562,-0.065461,0.0044251,-0.059358,-0.00015259,0.0086976,0.011444,-0.0019837
0.0086976,-0.034638,-0.016938,-0.044404,0.020905,-0.0028992,-0.017243,-0.022126
0.030365,-0.11185,0.014191,-0.011444,0.023957,-0.00015259,-0.013581,-0.036469
0.040436,-0.1445,-0.002594,-0.024872,0.051423,-0.00015259,-0.020294,-0.050813
0.014191,-0.11429,-0.024262,-0.059052,0.074311,-0.0038148,-0.026703,-0.053864
0.00076295,-0.11246,-0.028229,-0.069734,0.056916,0.00076295,0.011749,-0.046845
-0.0035096,-0.087434,-0.059358,-0.068513,0.034943,0.010529,0.031281,-0.013581
-0.0206,-0.041352,-0.082551,-0.078279,0.037385,0.0050355,0.028229,-0.023041
-0.04593,-0.0035096,-0.08957,-0.090486,0.02884,0.011139,0.022126,-0.0056458
-0.087434,0.030671,-0.11032,-0.103,0.011444,0.024567,0.029145,0.041047
-0.094148,0.033112,-0.092927,-0.095369,-0.0032044,0.015412,0.029145,0.075837
-0.084993,0.052338,-0.10697,-0.10452,-0.0053407,0.0047303,0.023041,0.079194
-0.096895,0.065766,-0.11429,-0.10513,-0.02884,0.0099184,0.0071717,0.044404
-0.092317,0.058442,-0.10513,-0.0972,-0.054475,0.0077821,0.017243,0.06424
-0.066987,0.009308,-0.070649,-0.11063,-0.04715,0.0080873,0.024872,0.083467
-0.038605,-0.023346,-0.049287,-0.086824,-0.039216,0.022736,0.013581,0.061799
-0.014496,-0.043488,-0.052949,-0.075532,-0.025483,0.033112,0.0090028,0.01297
0.022736,-0.092012,-0.016632,-0.058442,-0.0041199,0.034028,0.010529,0.0047303
0.04715,-0.11643,0.016632,-0.038605,0.021515,0.035554,-0.0019837,-0.015717
0.066072,-0.14054,0.041047,-0.033112,0.033417,0.018769,-0.016327,-0.039216
0.085298,-0.15183,0.017548,-0.020294,0.050202,-0.0010681,-0.015717,-0.074006
0.043793,-0.11826,-0.03769,-0.032197,0.076448,-0.011444,-0.026398,-0.11307
0.039826,-0.087434,-0.043183,-0.068818,0.078279,-0.013275,-0.026703,-0.085298
0.023957,-0.059358,-0.076753,-0.099947,0.052338,-0.022126,-0.016327,-0.048371
-0.0068666,-0.024567,-0.062104,-0.093843,0.039826,-0.0050355,-0.014191,-0.059968
-0.058747,0.017243,-0.11154,-0.095064,0.0035096,0.0090028,0.0056458,-0.025177
-0.074617,0.035248,-0.15946,-0.09659,-0.015412,0.009308,0.027924,0.03769
-0.1033,0.04654,-0.067292,-0.10117,-0.022126,0.011139,0.051118,0.068513
-0.12741,0.057832,-0.1033,-0.10452,-0.023651,0.0062562,0.050507,0.073701
-0.13993,0.069123,-0.098421,-0.10513,-0.033722,0.012665,0.032197,0.096895
-0.11795,0.027619,-0.048066,-0.089265,-0.04593,0.026703,0.056306,0.11551
-0.11917,-0.01236,-0.033722,-0.078584,-0.044404,0.030671,0.058137,0.13169
-0.067903,-0.059968,-0.048066,-0.06302,-0.027619,0.024262,0.04593,0.11765
-0.036774,-0.056001,-0.062409,-0.06363,0.0028992,0.0053407,0.023957,0.070344
0.0010681,-0.051423,-0.033722,-0.069123,0.020905,-0.014191,-0.016938,0.015106
-0.00015259,-0.071565,-0.0047303,-0.061494,0.017243,0.0083925,-0.019684,-0.030671
0.011749,-0.11673,-0.018463,-0.064546,0.023041,0.0206,-0.012055,-0.059358
0.040436,-0.13626,-0.018769,-0.059663,0.036774,0.0044251,-0.015106,-0.057832
0.036164,-0.095979,-0.04654,-0.06302,0.053254,0.009308,-0.0028992,-0.055085
0.02121,-0.09781,-0.017853,-0.041047,0.055085,0.009308,0.0068666,-0.043793
-0.016938,-0.06363,-0.066072,-0.073396,0.053864,0.011139,0.017853,-0.04593
-0.011139,-0.030976,-0.063325,-0.082856,0.048371,0.023957,0.019684,-0.025788
-0.024567,-0.020905,-0.072786,-0.055695,0.029145,0.010224,0.024872,0.02121
-0.047456,0.0056458,-0.10697,-0.099031,0.013581,-0.0022889,0.0019837,-0.002594
-0.058747,0.037385,-0.1088,-0.11093,-0.01297,-0.013581,-0.015717,-0.011139
-0.049897,0.08835,-0.17166,-0.11704,-0.02945,-0.0090028,-0.012055,0.0019837
-0.035248,0.092317,-0.13993,-0.10666,-0.052644,-0.00015259,-0.0019837,0.033722
-0.035859,-0.0016785,-0.034028,-0.084688,-0.029755,-0.005951,0.0050355,0.035554
-0.048371,-0.0077821,-0.015717,-0.074617,-0.019379,-0.0016785,0.0065614,0.051728
-0.002594,-0.069429,0.010834,-0.04654,-0.022126,0.0080873,0.030976,0.10056
0.036774,-0.1384,-0.035859,-0.055695,0.015106,0.0099184,0.029755,0.0795
0.016022,-0.05417,-0.039216,-0.092622,0.041657,0.00015259,-0.002594,-0.019379
0.011749,-0.080415,-0.014496,-0.066377,0.014801,0.017853,0.0056458,-0.036469
0.002594,-0.095674,-0.0096132,-0.046845,0.024872,0.024567,0.023041,-0.04593
-0.014191,-0.10178,-0.018463,-0.063325,0.044099,0.017243,0.025177,-0.081331
-0.024872,-0.090181,-0.027924,-0.058137,0.044099,0.020905,0.029145,-0.091402
-0.019074,-0.10483,-0.05478,-0.050202,0.041352,0.016632,0.019989,-0.051118
-0.026703,-0.059968,-0.058442,-0.06363,0.027924,0.0083925,-0.0019837,-0.024262
-0.049897,-0.028229,-0.066377,-0.066377,0.022736,-0.0056458,0.00045777,-0.0032044
-0.069123,0.0022889,-0.070039,-0.075532,0.0086976,0.0010681,-0.0068666,0.017243
-0.084382,0.079805,-0.1265,-0.10666,0.0013733,0.0083925,0.005951,0.023651
-0.087129,0.067903,-0.10727,-0.12284,-0.013275,0.0038148,-0.0019837,0.037079
-0.060883,0.050507,-0.10849,-0.11337,-0.03769,0.010224,0.0096132,0.070649
-0.050507,0.028229,-0.11246,-0.094453,-0.046845,0.0083925,0.014191,0.087739
-0.057527,0.04654,-0.11429,-0.097505,-0.033417,0.0062562,0.011139,0.081331
-0.059052,0.0071717,-0.048676,-0.084993,-0.027314,0.0086976,0.020294,0.0795
-0.026703,-0.085603,-0.016632,-0.0795,-0.010529,0.0068666,0.0077821,0.073701
-0.025788,-0.08896,-0.0083925,-0.053559,0.0016785,0.022736,0.012055,0.043793
-0.0056458,-0.088045,-0.016632,-0.065461,0.017548,0.023041,0.015412,0.017243
0.032807,-0.11032,0.0062562,-0.050202,0.035554,0.026398,0.023651,0.017243
0.041047,-0.12467,0.005951,-0.014496,0.048981,0.018463,0.015106,-0.0053407
0.035248,-0.10971,-0.026703,-0.050813,0.053559,0.0028992,-0.0013733,-0.016632
0.039216,-0.099641,-0.023651,-0.057527,0.059968,0.0083925,0.011444,-0.0010681
0.026703,-0.056916,-0.052949,-0.06424,0.04593,0.005951,-0.0032044,-0.047761
-0.013275,-0.045319,-0.07126,-0.074311,0.031891,-0.0035096,-0.0047303,-0.095979
-0.045319,-0.009308,-0.094453,-0.081636,0.0206,-0.0019837,-0.0096132,-0.077974
-0.076143,0.019074,-0.098726,-0.099641,0.013886,-0.0068666,-0.017243,-0.065766
-0.10056,0.04654,-0.10513,-0.10697,0.0010681,-0.013886,-0.0062562,-0.023041
-0.12375,0.059358,-0.11154,-0.10086,-0.031281,0.012055,0.010529,0.021515
-0.085908,0.061189,-0.11246,-0.11032,-0.04715,0.022431,0.053254,0.05539
-0.072175,0.058442,-0.10086,-0.10361,-0.031586,0.020294,0.049592,0.093843
-0.059663,-0.00045777,-0.076753,-0.094453,-0.033722,0.018463,0.039826,0.10056
-0.04654,-0.041962,-0.044709,-0.078279,-0.033722,0.0053407,0.030365,0.11154
-0.017243,-0.065461,-0.010834,-0.061189,-0.018463,0.0077821,0.026703,0.095979
0.0080873,-0.10086,0.0083925,-0.067292,0.014801,0.0010681,0.016938,0.069123
0.037385,-0.1146,0.0080873,-0.048371,0.027619,0.02945,0.025788,0.042878
0.025788,-0.11093,0.0019837,-0.036774,0.036164,0.040131,0.024872,-0.018463
0.04593,-0.11795,-0.0383,-0.034943,0.044099,0.018463,0.035248,-0.066072
0.020905,-0.10056,-0.050202,-0.058442,0.05539,0.014496,0.039216,-0.092927
0.0065614,-0.086519,-0.032197,-0.061189,0.059358,0.012055,0.0071717,-0.092317
-0.0041199,-0.066987,-0.048371,-0.055085,0.048981,0.010224,0.048371,-0.036469
-0.0062562,-0.019684,-0.068208,-0.079805,0.037079,0.0050355,0.057832,-0.0047303
-0.025177,-0.005951,-0.08011,-0.08835,0.014801,0.0038148,0.047761,-0.0041199
-0.051423,0.011749,-0.08011,-0.11582,-0.0019837,-0.0056458,0.026093,-0.010224
-0.062104,0.048676,-0.11704,-0.0972,-0.018158,-0.020294,-0.23545,-0.019379
-0.083162,0.057832,-0.10605,-0.093233,-0.023041,-0.019989,-0.20096,0.00045777
-0.086824,0.053254,-0.091096,-0.1088,-0.0206,-0.018769,-0.00045777,0.058137
-0.1033,0.052338,-0.11826,-0.10941,-0.023651,-0.019379,0.027924,0.082856
-0.06302,0.016022,-0.081025,-0.086519,-0.041657,0.025177,0.073396,0.083772
-0.029145,-0.06424,-0.0022889,-0.065156,-0.034333,0.039521,0.065461,0.070039
-0.027008,-0.053559,-0.034028,-0.069123,-0.0056458,0.027314,0.009308,0.0071717
-0.012055,-0.084077,-0.012665,-0.061494,0.012055,0.0206,0.010529,-0.0206
0.00045777,-0.11032,-0.01297,-0.052644,0.02121,0.032502,0.051118,-0.024262
0.034943,-0.11887,-0.0065614,-0.028534,0.049287,0.0047303,0.0090028,-0.055695
0.039216,-0.12039,-0.022431,-0.04654,0.066072,-0.0096132,-0.032502,-0.06302
0.041657,-0.1088,-0.026703,-0.042878,0.060273,-0.0080873,-0.0053407,-0.027314
0.033722,-0.10636,-0.035859,-0.049592,0.045319,0.0062562,0.024262,-0.0035096
-0.0044251,-0.052644,-0.067292,-0.062409,0.050507,0.0099184,0.017548,-0.02945
0.012055,-0.029755,-0.083467,-0.092927,0.037385,0.0013733,0.015717,-0.019379
-0.02945,0.01236,-0.10147,-0.12894,0.016632,0.0090028,0.027008,-0.0056458
-0.062715,0.043488,-0.10636,-0.1146,-0.014801,0.039216,0.048371,0.057832
-0.058137,0.052644,-0.10544,-0.099641,-0.045319,0.038605,0.08835,0.091707
-0.08896,0.051423,-0.10208,-0.10727,-0.043793,0.013275,0.052033,0.059358
-0.10971,0.042267,-0.094453,-0.079805,-0.035859,0.020294,0.027008,0.087739
-0.098116,0.046235,-0.077974,-0.086519,-0.031586,0.030976,0.04715,0.13382
-0.057221,0.058747,-0.064851,-0.087129,-0.010529,0.014801,0.02121,0.08011
-0.049897,0.0035096,-0.04593,-0.083772,-0.0056458,0.0083925,-0.0035096,-0.0090028
-0.049592,-0.087434,-0.0086976,-0.057221,-0.0028992,0.019074,-0.030365,-0.03769
0.00076295,-0.14603,0.04593,-0.023346,0.016938,0.0047303,-0.082856,-0.010529
-0.0074769,-0.12894,-0.00076295,-0.038911,0.04593,0.00045777,-0.041657,0.019379
-0.017548,-0.11673,-0.031891,-0.0383,0.065156,0.012665,0.059052,0.0032044
-0.0044251,-0.11734,-0.024262,-0.048981,0.065766,0.016632,0.065766,0.0019837
0.002594,-0.10391,-0.03769,-0.045319,0.058137,0.019989,0.043793,-0.027619
-0.002594,-0.081331,-0.076753,-0.068818,0.049287,0.0090028,0.027924,-0.06363
-0.0019837,-0.052033,-0.037995,-0.069429,0.034943,0.018769,0.034028,-0.014801
-0.03769,-0.020294,-0.073396,-0.086824,0.019684,0.018463,0.02121,0.030365
-0.067903,0.028534,-0.094759,-0.10178,0.0041199,-0.0032044,-0.010224,0.02182
-0.059968,0.048066,-0.13107,-0.10727,-0.0096132,-0.023957,-0.023346,0.0074769
-0.045319,0.045624,-0.13993,-0.10391,-0.037079,-0.014801,-0.0206,0.02182
-0.048676,0.032197,-0.074311,-0.094759,-0.04654,0.0013733,0.012665,0.019684
-0.067292,0.032197,-0.08011,-0.11093,-0.043488,0.00076295,0.019379,0.022736
-0.058747,0.027314,-0.063325,-0.10391,-0.045319,0.010834,0.027314,0.066377
-0.048981,-0.024872,-0.061189,-0.098726,-0.037079,0.025177,0.037385,0.073701
-0.010529,-0.05539,-0.046845,-0.069123,-0.018769,0.034028,0.022126,0.046845
0.023346,-0.054475,-0.018158,-0.052338,0.0071717,0.023041,0.017548,0.052949
0.0383,-0.11398,-0.0056458,-0.050202,0.022736,0.0065614,0.010834,0.009308
0.040436,-0.10452,0.010529,-0.04715,0.042267,-0.00076295,-0.00076295,-0.028229
0.039826,-0.11429,-0.010529,-0.048371,0.060578,-0.00015259,0.0080873,-0.02945
0.0090028,-0.11185,-0.024262,-0.054475,0.066072,0.015412,0.016632,-0.041962
-0.0019837,-0.12436,-0.031586,-0.043183,0.058137,0.022126,0.0035096,-0.074617
0.0032044,-0.0795,-0.066072,-0.061494,0.050202,0.016327,0.0019837,-0.075837
0.0035096,-0.039826,-0.070039,-0.078279,0.02945,0.002594,-0.01236,-0.065766
-0.017243,-0.040436,-0.052033,-0.0795,0.021515,-0.0056458,-0.028534,-0.055695
-0.056611,0.015106,-0.10239,-0.10849,0.01297,-0.0090028,-0.01236,-0.041962
-0.068208,0.041657,-0.095064,-0.10117,-0.012055,-0.00015259,-0.0019837,0.0038148
-0.084382,0.087739,-0.12528,-0.090791,-0.035554,0.0028992,0.0096132,0.03006
-0.081636,0.063935,-0.096284,-0.089265,-0.035248,-0.0047303,0.0096132,0.052033
-0.081025,0.062715,-0.12528,-0.092927,-0.025788,-0.0071717,0.015717,0.069429
-0.070954,0.10178,-0.14176,-0.10666,-0.015106,-0.01297,0.00045777,0.075532
-0.054475,0.016022,-0.041047,-0.076753,-0.017243,0.012055,0.026703,0.072175
-0.031281,-0.066987,-0.019074,-0.068208,-0.016632,0.028534,0.037385,0.054475
0.0041199,-0.13138,0.048066,-0.047761,0.002594,0.022736,0.048371,0.049897
0.025177,-0.16434,0.0035096,-0.05539,0.032807,0.019074,0.033722,0.017853
0.010834,-0.12009,-0.016632,-0.062409,0.045014,0.033417,0.016632,0.010529
0.02945,-0.11887,-0.020294,-0.054475,0.033112,0.015412,0.016938,0.01297
0.037079,-0.15091,0.034638,-0.0074769,0.050507,0.0013733,-0.0041199,-0.0074769
0.016938,-0.11612,-0.017853,-0.037385,0.073396,-0.009308,-0.022431,-0.053254
-0.018158,-0.036774,-0.092927,-0.085908,0.072175,-0.018158,-0.030976,-0.095064
-0.041657,0.014496,-0.098726,-0.10849,0.024872,-0.0013733,-0.023346,-0.060883
-0.055085,0.0074769,-0.086824,-0.082246,-0.010529,0.0071717,0.015412,-0.0047303
-0.059052,0.016327,-0.12894,-0.092317,-0.019074,0.018158,0.027619,0.031891
-0.076143,0.045319,-0.121,-0.12314,-0.0096132,0.019379,0.012665,0.044404
-0.10147,0.062409,-0.10819,-0.12985,-0.040436,0.02121,0.023651,0.065766
-0.095674,0.04654,-0.086824,-0.11063,-0.054475,0.015412,0.019379,0.098421
-0.076753,0.035859,-0.084077,-0.085603,-0.051728,0.019074,0.021515,0.10147
-0.057832,-0.02182,-0.030365,-0.057527,-0.027008,0.028534,0.044404,0.098726
-0.030976,-0.048066,-0.026703,-0.062715,0.002594,0.0090028,0.030365,0.074006
-0.009308,-0.06363,-0.014191,-0.076448,0.01297,0.0038148,0.016022,0.042878
0.019074,-0.094148,-0.0096132,-0.066377,0.017243,0.014191,0.017853,0.011139
0.015106,-0.098116,-0.040131,-0.059052,0.027314,0.021515,0.020294,-0.031586
0.023041,-0.11185,-0.019684,-0.060273,0.035248,0.024567,0.023041,-0.043793
0.035554,-0.080415,-0.044099,-0.052644,0.045319,0.016022,0.019684,-0.043488
0.048981,-0.066987,-0.031891,-0.059663,0.049592,0.021515,0.023346,-0.039521
0.037385,-0.095674,-0.030365,-0.049287,0.047761,0.030365,0.012055,-0.019074
0.022126,-0.064546,-0.066072,-0.061494,0.052949,0.014191,-0.021515,-0.045319
-0.0065614,0.011749,-0.094148,-0.082246,0.035248,-0.0041199,-0.017243,-0.081941
-0.033112,0.026398,-0.088045,-0.067597,0.015717,-0.013886,-0.024872,-0.086213
-0.049897,0.019074,-0.097505,-0.077363,0.0065614,-0.019379,-0.021515,-0.054475
-0.072175,0.050202,-0.10208,-0.11521,-0.020905,-0.020294,-0.01236,0.0080873
-0.073091,0.051423,-0.1207,-0.12589,-0.037079,0.0038148,0.009308,0.040436
-0.064851,0.035859,-0.08896,-0.11063,-0.047456,0.018769,0.012665,0.045014
-0.048981,-0.0035096,-0.069429,-0.072175,-0.03769,-0.0035096,0.010529,0.081636
-0.0383,-0.046235,-0.08835,-0.068513,-0.015106,-0.0022889,0.016938,0.083772
-0.059052,-0.077363,0.0062562,-0.078889,0.0068666,-0.0028992,-0.0032044,0.059968
-0.063325,-0.11368,0.0056458,-0.08835,0.012665,0.005951,0.009308,0.034333
-0.035248,-0.10697,-0.010834,-0.058442,0.013275,0.045319,0.048066,0.02121
-0.022736,-0.095369,-0.016632,-0.06302,0.020905,0.041352,0.034943,0.011139
0.0050355,-0.10849,-0.0035096,-0.023651,0.04593,0.041047,0.042878,0.014191
0.0032044,-0.092927,-0.021515,-0.03769,0.06424,0.0206,0.016022,-0.012665
0.009308,-0.089876,-0.033112,-0.045014,0.055695,0.018463,-0.0013733,-0.026703
0.0035096,-0.048981,-0.064851,-0.061494,0.055085,0.0022889,-0.023041,-0.063325
-0.014801,-0.026703,-0.07248,-0.077668,0.041047,-0.020294,-0.018769,-0.065766
-0.056001,0.020294,-0.097505,-0.099641,0.015412,-0.021515,-0.0065614,-0.0074769
-0.08011,0.056611,-0.11215,-0.10727,-0.00015259,-0.0062562,0.022126,0.019074
-0.086824,0.063935,-0.12375,-0.11093,-0.019379,0.017853,0.048371,0.073396
-0.081025,0.067903,-0.11276,-0.11368,-0.02945,0.019074,0.05417,0.10208
-0.08011,0.036469,-0.076753,-0.09781,-0.038911,0.0099184,0.052338,0.11429
-0.098116,0.037385,-0.077363,-0.0972,-0.037079,0.018158,0.044404,0.11551
-0.058747,0.0047303,-0.05478,-0.08896,-0.02945,0.023041,0.076753,0.11551
-0.018769,-0.034638,-0.030976,-0.085908,-0.018769,0.014191,0.053864,0.077974
-0.011139,-0.060578,-0.029755,-0.072175,-0.0074769,0.02121,0.0383,0.026703
0.027314,-0.096895,-0.01297,-0.043183,0.0068666,0.030976,0.10788,-0.0065614
0.029145,-0.12253,-0.0080873,-0.042573,0.029755,0.015106,-0.097505,-0.031281
0.040131,-0.11978,-0.0096132,-0.047456,0.049287,0.0086976,-0.27268,-0.074617
0.050202,-0.12009,-0.044404,-0.042573,0.050507,0.012055,-0.040742,-0.062104
0.030365,-0.085908,-0.040131,-0.043488,0.055085,0.01297,0.04654,-0.070649
0.022736,-0.10056,-0.011444,-0.056916,0.047761,-0.0035096,0.0010681,-0.045319
-0.022126,-0.056916,-0.044404,-0.075837,0.035554,-0.0022889,-0.025788,-0.034638
-0.045014,-0.018158,-0.08011,-0.077363,0.025483,-0.0010681,-0.0022889,-0.047761
-0.055695,0.0077821,-0.093233,-0.089265,0.023651,0.0022889,0.030365,-0.035554
-0.069734,0.033417,-0.10727,-0.11093,-0.0019837,0.0090028,0.011139,-0.019379
-0.082246,0.040131,-0.1207,-0.11154,-0.034638,0.014801,0.015717,0.015717
-0.075532,0.037385,-0.11124,-0.091707,-0.040436,0.0090028,0.030976,0.055695
-0.081941,0.03769,-0.088655,-0.083772,-0.026398,0.002594,0.034028,0.075227
-0.067292,0.049287,-0.083162,-0.099336,-0.016938,0.0068666,0.02945,0.050507
-0.060883,0.0044251,-0.05478,-0.087739,-0.016327,0.009308,0.016022,0.042878
-0.036469,-0.036164,-0.038911,-0.061494,-0.0090028,0.0041199,-0.0019837,0.041047
-0.012055,-0.066377,-0.013581,-0.059358,0.009308,0.0090028,-0.0056458,0.028229
0.030976,-0.12863,0.024567,-0.043183,0.013886,0.022126,0.024262,0.032197
0.042267,-0.11978,-0.014191,-0.032502,0.036774,0.017243,0.030976,-0.0022889
0.051728,-0.12772,-0.017853,-0.040436,0.053254,0.021515,0.023957,-0.023346
0.054475,-0.13535,-0.026703,-0.045624,0.056306,0.023957,0.0019837,-0.04654
0.057832,-0.12863,-0.02182,-0.051728,0.059968,0.015412,0.0010681,-0.050813
0.027314,-0.090181,-0.048981,-0.099947,0.044404,0.014191,0.0074769,-0.058137
-0.012055,-0.038911,-0.073396,-0.08072,0.031586,0.0083925,-0.0050355,-0.045624
-0.039826,0.0096132,-0.092927,-0.085603,0.016632,0.002594,-0.029755,-0.014191
-0.05539,0.02182,-0.10971,-0.0972,0.0016785,0.01236,-0.0032044,0.010834
-0.087434,0.054475,-0.11093,-0.11246,-0.0080873,0.010529,0.012665,0.035248
-0.10758,0.079805,-0.11093,-0.099947,-0.026398,-0.009308,0.0068666,0.037079
-0.10513,0.074617,-0.099641,-0.11246,-0.034943,0.0053407,0.014801,0.074311
-0.10849,0.04593,-0.092622,-0.10361,-0.046845,0.01236,0.033417,0.091707
-0.075227,0.021515,-0.064851,-0.093233,-0.038911,0.014801,0.056306,0.066377
-0.041657,-0.035554,-0.041962,-0.081331,-0.019379,0.013275,0.057527,0.066072
-0.019684,-0.072175,-0.025483,-0.066377,-0.01236,0.012055,0.039216,0.064546
0.00076295,-0.11673,-0.026093,-0.058747,-0.0041199,0.012055,0.0074769,0.047456
0.0086976,-0.10208,0.0044251,-0.042573,0.018769,0.012055,0.0053407,0.010529
0.023651,-0.083772,-0.0047303,-0.033112,0.035248,0.018769,0.0032044,-0.018769
0.098726,-0.13657,-0.0099184,-0.026703,0.053559,0.016022,-0.013581,-0.040742
0.077668,-0.11582,-0.034028,-0.041352,0.068208,0.0013733,-0.018158,-0.081025
0.043183,-0.098421,-0.027924,-0.060883,0.070649,0.0053407,-0.019074,-0.10117
0.0016785,-0.064851,-0.06424,-0.079805,0.060578,0.0071717,0.010834,-0.084077
-0.030976,-0.041657,-0.07126,-0.078279,0.039826,0.0010681,0.011444,-0.057527
-0.091707,0.0086976,-0.097505,-0.083467,0.023346,-0.0013733,0.0010681,-0.028534
-0.13352,0.047761,-0.10605,-0.11398,0.009308,-0.0077821,-0.0068666,0.015106
-0.12772,0.075532,-0.10544,-0.10941,-0.030671,0.0022889,0.0038148,0.091402
-0.12375,0.063325,-0.10758,-0.11643,-0.053254,0.0083925,0.026093,0.14511
-0.091707,0.043793,-0.094453,-0.099641,-0.038911,0.0038148,0.025483,0.13474
-0.093233,0.041962,-0.087129,-0.08896,-0.044404,0.0050355,0.024872,0.11978
-0.048981,-0.0022889,-0.057832,-0.0972,-0.030365,-0.0032044,0.039521,0.092012
-0.015106,-0.041962,-0.03769,-0.078889,-0.016632,0.0068666,0.024262,0.051118
-0.0074769,-0.072786,-0.035554,-0.051728,-0.00015259,0.015106,0.031586,0.010834
0.02182,-0.10056,-0.032502,-0.061189,0.0035096,0.0065614,0.045624,-0.009308
0.035248,-0.11978,-0.020905,-0.05539,0.019379,0.011444,0.010834,-0.014496
0.041047,-0.11582,-0.012055,-0.040436,0.027314,0.020294,0.0099184,-0.034638
0.052949,-0.10819,0.0047303,-0.0383,0.045624,-0.0016785,0.00076295,-0.059968
0.046235,-0.092317,-0.018158,-0.057221,0.055695,0.0032044,-0.0022889,-0.08011
0.039521,-0.065461,-0.055085,-0.070344,0.058137,0.019989,-0.0047303,-0.086213
0.0056458,-0.039826,-0.049897,-0.082551,0.065156,0.027008,0.005951,-0.07126
-0.0062562,-0.061494,-0.034333,-0.069429,0.040131,0.03006,0.010834,-0.012665
-0.044404,0.002594,-0.12039,-0.070344,0.016938,0.013886,0.0080873,-0.019379
-0.082856,0.053254,-0.12894,-0.11398,0.0080873,-0.0090028,-0.025788,-0.037079
-0.11429,0.051728,-0.12375,-0.11765,-0.024872,-0.017548,-0.036469,0.00076295
-0.11002,0.048371,-0.12314,-0.11765,-0.05478,-0.017243,-0.030365,0.061799
-0.076753,0.015412,-0.038605,-0.084688,-0.04593,-0.020294,-0.039521,0.1146
-0.08896,-0.022736,-0.041047,-0.06302,-0.02884,-0.016022,-0.02121,0.11032
-0.08957,-0.040131,-0.052644,-0.096895,-0.010224,0.012665,0.021515,0.073701
-0.074922,-0.0086976,-0.064546,-0.088655,-0.013275,0.052338,0.08072,0.10056
-0.010529,-0.045624,-0.025788,-0.060578,-0.015106,0.069734,0.11185,0.12497
0.015717,-0.061799,-0.013581,-0.064851,0.014801,0.06363,0.09781,0.091707
0.027314,-0.066682,-0.0013733,-0.0035096,0.035554,0.046235,0.053559,0.013581
0.037385,-0.1387,-0.024872,-0.022431,0.056306,0.025483,0.035248,-0.073091
0.015106,-0.12192,-0.031891,-0.062715,0.076143,0.0062562,-0.002594,-0.083162
0.0013733,-0.056001,-0.024567,-0.076448,0.059052,0.0053407,-0.012055,-0.069734
-0.00076295,-0.058442,-0.033722,-0.05539,0.044099,0.010834,-0.024872,-0.065461
-0.024567,-0.061494,-0.062409,-0.055695,0.044099,0.0028992,-0.038911,-0.067597
-0.030365,-0.028534,-0.096895,-0.089876,0.045014,-0.015412,-0.04715,-0.055085
-0.052033,0.022126,-0.1088,-0.1088,0.02884,-0.018158,-0.040436,-0.047761
-0.066072,0.054475,-0.13169,-0.12345,-0.011139,0.013886,0.00076295,-0.030671
-0.081331,0.066072,-0.10025,-0.11398,-0.037079,0.0041199,0.0028992,0.013275
-0.099641,0.06424,-0.086824,-0.099336,-0.055085,0.0068666,0.0035096,0.043183
-0.084993,0.053864,-0.092927,-0.10269,-0.056916,0.032807,0.037995,0.098116
-0.061494,0.02121,-0.065156,-0.10636,-0.040436,0.031586,0.04715,0.13657
-0.029145,-0.053559,-0.011444,-0.078584,-0.038605,0.018463,0.028229,0.12863
-0.00076295,-0.068208,-0.030365,-0.073396,-0.015717,0.0038148,0.015106,0.094759
0.059663,-0.14054,-0.016632,-0.026093,0.013581,-0.0032044,0.0053407,0.055695
0.068208,-0.1265,-0.022126,-0.028534,0.033112,0.005951,-0.0090028,-0.00045777
0.055695,-0.1146,-0.021515,-0.033417,0.04715,0.0041199,-0.012055,-0.032502
0.061189,-0.11582,0.022126,-0.033112,0.049287,0.0010681,0.0077821,-0.032502
0.06424,-0.10788,-0.027924,-0.048371,0.057527,-0.0019837,-0.0053407,-0.053559
0.054475,-0.084993,-0.047761,-0.073701,0.063325,-0.0071717,-0.018769,-0.099641
0.0086976,-0.062409,-0.056001,-0.061494,0.045014,-0.011749,-0.0062562,-0.11063
-0.016327,-0.042267,-0.07248,-0.073396,0.040131,-0.0062562,-0.014191,-0.094148
-0.041962,-0.0016785,-0.098421,-0.084382,0.026093,0.0028992,-0.022736,-0.053864
-0.086824,0.02945,-0.095064,-0.12772,0.014191,-0.015412,-0.025483,-0.026703
-0.12009,0.066377,-0.12039,-0.10727,-0.017243,-0.0016785,0.0080873,0.014191
-0.1091,0.063325,-0.11521,-0.099947,-0.04715,0.010224,0.02884,0.081636
-0.095674,0.05539,-0.093538,-0.10147,-0.038605,-0.013581,0.022736,0.11002
-0.081941,0.041657,-0.086519,-0.10666,-0.035554,0.009308,0.031586,0.075532
-0.078279,0.019379,-0.068513,-0.10178,-0.039216,0.027008,0.052949,0.059968
-0.061189,-0.015717,-0.05417,-0.0795,-0.043793,0.034028,0.09781,0.094759
-0.056001,-0.062104,-0.03006,-0.066377,-0.028534,0.038605,0.086519,0.078279
-0.035859,-0.11429,0.028229,-0.05539,0.0038148,0.028534,0.084077,0.064546
-0.010224,-0.13809,-0.00015259,-0.052949,0.035859,0.037385,0.086213,0.089265
-0.019074,-0.091707,-0.032502,-0.051118,0.056306,0.033112,0.086824,0.061494
-0.0083925,-0.083772,-0.027924,-0.056916,0.049897,0.027314,-0.01236,0.019074
0.0041199,-0.10239,-0.017853,-0.046235,0.037995,0.018158,-0.262,-0.017243
0.016938,-0.086519,-0.037079,-0.059052,0.047456,0.022126,-0.086213,-0.032502
-0.0041199,-0.043488,-0.066987,-0.085908,0.041352,0.022431,0.062409,-0.041657
0.0074769,-0.024872,-0.085298,-0.058747,0.016022,0.0044251,0.013886,-0.090181
-0.032502,0.0032044,-0.10025,-0.077668,0.017853,-0.017853,-0.015717,-0.069429
-0.031281,0.015717,-0.10513,-0.103,0.0206,-0.024262,-0.016632,-0.019684
-0.024567,0.0096132,-0.10697,-0.1091,-0.011139,-0.0080873,-0.0050355,-0.002594
-0.041352,0.049592,-0.11521,-0.12436,-0.029145,-0.011444,0.009308,0.00045777
-0.04654,0.039826,-0.084077,-0.096895,-0.050813,-0.0013733,0.0016785,0.014191
-0.056611,0.041962,-0.082856,-0.084688,-0.051118,0.0041199,-0.0032044,0.0013733
-0.039826,-0.0022889,-0.048066,-0.075837,-0.030365,-0.0022889,0.0071717,0.027314
-0.022431,-0.038605,-0.026093,-0.061799,-0.0013733,-0.0013733,0.0050355,0.043183
0.0035096,-0.061799,-0.013581,-0.07126,0.005951,0.0068666,0.011749,0.031281
0.012665,-0.10788,-0.014191,-0.045319,0.016938,0.010529,0.0086976,-0.002594
0.02884,-0.11612,-0.029145,-0.048371,0.036774,0.005951,0.011444,-0.028229
0.027924,-0.10575,-0.0019837,-0.044709,0.05539,0.0068666,0.009308,-0.025483
0.031586,-0.072175,-0.018769,-0.047761,0.059052,0.010224,0.010834,-0.035554
0.039216,-0.11185,-0.0065614,-0.043183,0.062104,0.002594,0.0028992,-0.051118
0.0053407,-0.13138,-0.011444,-0.061494,0.059358,-0.00076295,0.0019837,-0.031891
-0.019379,-0.089876,-0.069429,-0.068513,0.040436,0.0080873,0.013275,-0.016632
-0.034943,-0.0077821,-0.11826,-0.095064,0.037995,-0.005951,0.013886,0.011139
-0.057832,0.035554,-0.10269,-0.099947,0.025483,0.0050355,0.055085,0.042878
-0.077668,0.06424,-0.11307,-0.10452,-0.01297,0.014191,0.049592,0.027008
-0.089265,0.059968,-0.11307,-0.099947,-0.044404,0.017243,0.011444,0.024872
-0.082856,0.05539,-0.0972,-0.11093,-0.048676,0.017243,0.019989,0.045014
-0.084077,0.038605,-0.082551,-0.093538,-0.051728,0.009308,0.010529,0.068208
-0.082856,0.02182,-0.074617,-0.082856,-0.040742,-0.0010681,-0.0028992,0.05417
-0.062104,-0.0038148,-0.056306,-0.08835,-0.029755,-0.012055,-0.041962,0.062409
-0.059052,-0.033722,-0.032807,-0.078279,-0.021515,-0.0022889,-0.017243,0.059968
-0.013275,-0.086519,0.014496,-0.046845,-0.0050355,0.028229,0.053864,0.0071717
0.022126,-0.13809,0.044099,-0.022431,0.017243,0.033112,0.050507,0.0038148
0.075532,-0.11765,-0.037079,-0.038605,0.053254,0.01236,0.017853,-0.0068666
0.058137,-0.10544,-0.024262,-0.056306,0.072175,-0.013886,-0.067903,-0.039216
0.02945,-0.11978,-0.005951,-0.042573,0.062409,-0.0032044,-0.094148,-0.043488
0.009308,-0.10452,-0.039826,-0.062715,0.053559,0.016632,-0.0010681,-0.033722
-0.034638,-0.047456,-0.051118,-0.078279,0.039216,0.022736,0.059052,-0.026398
-0.051728,0.0035096,-0.092012,-0.082856,0.024262,0.040436,0.043793,-0.0041199
-0.069429,0.027619,-0.10422,-0.0972,0.0096132,0.030671,0.023651,0.013275
-0.11124,0.051423,-0.13046,-0.11887,-0.0062562,0.014191,0.0019837,-0.012055
-0.1207,0.065156,-0.11063,-0.11795,-0.032197,0.0071717,0.017243,0.044099
-0.10178,0.026703,-0.054475,-0.10239,-0.041657,0.013886,0.032807,0.092927
-0.061799,0.015717,-0.10605,-0.085908,-0.026703,0.0013733,0.0099184,0.086519
-0.023346,0.052338,-0.13504,-0.081025,-0.019379,-0.01297,0.0019837,0.067903
-0.023346,-0.0083925,-0.042573,-0.081025,-0.0096132,-0.010834,-0.01297,-0.0050355
-0.034333,-0.02884,-0.048981,-0.071565,-0.01297,0.0053407,-0.002594,-0.010834
-0.014496,-0.047761,-0.040131,-0.060883,-0.0022889,0.020905,0.04654,0.057527
0.00076295,-0.092927,-0.018463,-0.058747,0.0028992,0.036164,0.05539,0.034943
-0.002594,-0.11337,0.0053407,-0.046845,0.019684,0.022431,0.027924,-0.0041199
0.016022,-0.12619,0.002594,-0.047761,0.034943,0.011139,-0.002594,-0.013275
0.019989,-0.12833,-0.01297,-0.051423,0.049592,0.015106,-0.0013733,-0.0068666
-0.00076295,-0.10269,-0.026093,-0.066377,0.063935,0.022431,0.017548,-0.0090028
-0.016938,-0.084993,-0.046235,-0.093538,0.055085,0.038605,0.01297,-0.0032044
-0.014496,-0.05417,-0.063325,-0.08072,0.02945,0.044099,0.055695,0.0090028
-0.022126,-0.020294,-0.083467,-0.081636,0.016022,0.009308,0.023041,-0.016938
-0.025788,0.0047303,-0.086824,-0.090791,0.02121,-0.022736,-0.02945,-0.0206
-0.029145,0.018158,-0.096895,-0.074922,0.0028992,-0.011749,-0.023651,0.0010681
-0.030671,0.037079,-0.11337,-0.089265,-0.0096132,0.0022889,-0.016938,-0.00045777
-0.039826,0.04593,-0.11429,-0.10269,-0.027619,0.0010681,-0.0041199,-0.0013733
-0.028229,0.049287,-0.08835,-0.092927,-0.031586,-0.015106,-0.0044251,0.026093
-0.040436,0.025177,-0.062715,-0.095369,-0.029755,-0.0090028,-0.013581,0.041352
-0.039216,-0.010529,-0.042573,-0.10086,-0.025788,0.0047303,0.0065614,0.033417
-0.049287,-0.030365,-0.066682,-0.082246,-0.027008,0.020294,0.009308,0.025483
-0.038911,-0.058442,-0.022126,-0.071565,-0.016938,0.021515,0.019989,0.023346
-0.015412,-0.10178,-0.0096132,-0.056916,0.0038148,0.017243,0.023041,0.043488
-0.015717,-0.11276,-0.0206,-0.042878,0.023651,0.031281,0.024872,0.037079
0.023041,-0.12253,-0.018463,-0.051118,0.042267,0.028534,0.027619,0.0013733
-0.00076295,-0.10483,-0.022736,-0.058747,0.04715,0.03006,0.013581,-0.02945
-0.00015259,-0.10605,-0.017853,-0.048371,0.036774,0.029145,0.0038148,-0.062104
-0.0065614,-0.080415,-0.036469,-0.056306,0.022126,0.016632,-0.0041199,-0.06363
-0.019684,-0.04654,-0.042573,-0.070344,0.028229,-0.0016785,0.015106,-0.052949
-0.039826,-0.014801,-0.061189,-0.087739,0.023651,0.0062562,0.0090028,-0.024872
-0.068818,0.044709,-0.099641,-0.103,0.012665,0.0071717,0.0050355,-0.01297
-0.048371,0.04593,-0.1149,-0.065461,-0.0050355,-0.0090028,0.0035096,-0.0022889
-0.041047,0.035859,-0.13107,-0.091402,-0.01297,-0.017853,-0.010834,0.022736
-0.047456,0.04593,-0.1091,-0.093233,0.0028992,-0.032807,-0.011139,0.04715
-0.065766,0.036469,-0.062715,-0.098421,-0.016632,-0.013275,0.0071717,0.08957
-0.065156,0.043793,-0.078279,-0.091096,-0.023041,0.005951,0.015412,0.098116
-0.038605,0.0019837,-0.058137,-0.10147,-0.0206,0.0028992,0.037385,0.11032
-0.021515,-0.045319,-0.042573,-0.077668,-0.018158,0.018158,0.044099,0.095369
-0.0071717,-0.084688,-0.016327,-0.051423,0.0050355,0.010834,0.0086976,0.031891
0.019684,-0.10269,-0.0062562,-0.034638,0.023346,0.01297,0.0013733,-0.026398
0.035859,-0.1146,-0.023651,-0.058442,0.033722,0.017853,-0.010834,-0.058137
0.067903,-0.13382,0.009308,-0.048676,0.048371,0.00045777,-0.019379,-0.082856
0.047456,-0.16587,0.013581,-0.046845,0.051728,-0.0016785,-0.0022889,-0.078279
0.013275,-0.13626,-0.056916,-0.060883,0.03769,0.00015259,0.0080873,-0.052033
-0.0068666,-0.060578,-0.074311,-0.061189,0.049592,0.0013733,0.0086976,-0.035248
-0.05478,-0.014496,-0.07248,-0.077668,0.041962,0.0090028,0.011139,-0.030671
-0.095369,0.011444,-0.098116,-0.083467,0.025177,0.019074,0.034333,-0.022126
-0.093233,0.026093,-0.15274,-0.098726,-0.00076295,0.014191,0.045319,-0.00015259
-0.092317,0.052644,-0.11063,-0.09659,-0.020905,0.0050355,0.024262,0.027619
-0.091096,0.024567,-0.087434,-0.074617,-0.022431,-0.0032044,0.0028992,0.039521
-0.10025,0.063325,-0.10483,-0.16342,-0.027008,-0.016327,-0.016327,0.067903
-0.095369,0.077363,-0.082856,-0.13901,-0.035554,0.0010681,-0.0090028,0.11368
-0.074006,0.017243,-0.063935,-0.084382,-0.043793,0.0071717,-0.011139,0.11551
-0.051423,-0.034028,-0.045624,-0.069429,-0.020905,0.012055,-0.011139,0.086213
-0.0086976,-0.099947,0.034333,-0.043488,-0.0044251,0.023957,0.0068666,0.050507
0.033112,-0.11795,0.0062562,-0.02945,-0.0013733,0.034943,0.02945,0.010529
0.045624,-0.093538,-0.019684,-0.041657,0.027619,0.029145,0.021515,-0.014801
0.032807,-0.081941,-0.018463,-0.069123,0.038911,0.02121,0.031891,-0.020294
0.034943,-0.10025,-0.018463,-0.076753,0.045014,0.020294,0.03006,-0.037385
0.041657,-0.10971,-0.030671,-0.052949,0.045319,0.026093,0.02121,-0.029755
0.039521,-0.094453,-0.032197,-0.061494,0.045014,0.018158,0.034028,-0.039521
0.013581,-0.070039,-0.05417,-0.066682,0.045014,0.0010681,0.0068666,-0.089265
0.0016785,-0.023346,-0.084993,-0.087739,0.023957,-0.005951,0.012665,-0.075532
-0.033417,0.00045777,-0.1088,-0.086519,0.0065614,0.0062562,0.015106,-0.037079
-0.051728,0.0383,-0.11856,-0.081636,-0.013275,0.009308,0.039216,-0.02121
-0.065156,0.052644,-0.11643,-0.094453,-0.014191,-0.0056458,0.067292,0.010529
-0.08011,0.056306,-0.10544,-0.10391,-0.018158,-0.013275,-0.14237,0.0383
-0.1033,0.052033,-0.082551,-0.092317,-0.032197,-0.029145,-0.2565,0.063935
-0.092012,0.026093,-0.073091,-0.094453,-0.039216,-0.014801,-0.016327,0.067597
-0.069123,-0.015412,-0.023041,-0.076448,-0.040742,0.014801,0.065461,0.034943
-0.038911,-0.038605,-0.048371,-0.081025,-0.022126,0.018463,0.059358,0.027619
-0.017243,-0.06363,-0.034638,-0.063325,-0.010224,0.018158,0.058137,0.045624
0.010834,-0.10086,-0.019989,-0.037079,-0.0019837,0.021515,0.039521,0.03769
0.029755,-0.11795,-0.010834,-0.044404,0.027619,0.012665,0.029755,0.0056458
0.026093,-0.11887,-0.0068666,-0.05539,0.053864,0.0071717,0.016938,0.0010681
0.023346,-0.11032,-0.028229,-0.049287,0.049287,0.024262,0.018158,-0.010529
0.02884,-0.10971,-0.012055,-0.033112,0.055695,0.0086976,0.019074,-0.034943
0.02121,-0.08957,-0.037079,-0.047456,0.061189,0.0013733,0.017548,-0.030671
-0.0080873,-0.0028992,-0.073091,-0.078584,0.05417,0.0022889,0.014801,-0.058747
-0.027314,0.0083925,-0.10208,-0.089876,0.029755,-0.013581,0.005951,-0.053864
-0.074006,0.0074769,-0.10941,-0.099031,0.013886,-0.015717,0.0032044,-0.015717
-0.095979,0.042267,-0.095064,-0.11582,-0.0053407,-0.013275,0.010834,0.031281
-0.10208,0.045319,-0.10025,-0.098421,-0.025177,-0.005951,0.022126,0.092622
-0.10178,0.02182,-0.10422,-0.091402,-0.028229,0.0050355,0.039216,0.1088
-0.077974,-0.084993,-0.094148,-0.11856,-0.0206,0.0041199,0.027314,0.10178
-0.083772,0.015106,-0.068818,-0.103,-0.034638,0.014496,0.027314,0.074311
-0.066682,0.0044251,-0.041962,-0.093233,-0.049287,0.038605,0.066072,0.057832
-0.037385,-0.014496,-0.030976,-0.070954,-0.025483,0.044404,0.066072,0.031281
-0.002594,-0.019684,-0.024872,-0.045319,-0.0074769,0.06424,0.045319,-0.00045777
0.015412,-0.094453,-0.0074769,-0.053254,0.022126,0.052644,0.013275,-0.0086976
0.027924,-0.12192,-0.0077821,-0.045319,0.049897,0.012665,-0.018769,-0.029145
0.014801,-0.12161,-0.0035096,-0.04654,0.052949,0.002594,-0.057221,-0.034943
0.0068666,-0.084688,-0.034028,-0.06302,0.049897,-0.02182,-0.067597,-0.035248
0.011139,-0.092622,-0.02884,-0.057221,0.048981,-0.017853,-0.029755,-0.047761
0.011749,-0.10483,-0.039826,-0.040742,0.034333,0.0071717,0.035554,-0.042878
-0.042878,-0.03006,-0.088655,-0.080415,0.032807,0.018463,0.040436,-0.043488
-0.056611,0.018158,-0.10513,-0.12284,0.035554,0.018769,0.02884,-0.017243
-0.043793,0.035554,-0.10147,-0.10513,0.0099184,0.021515,0.027619,0.02884
-0.041047,0.0383,-0.11246,-0.10452,-0.028229,0.012055,0.023041,0.051423
-0.059663,0.041657,-0.10971,-0.11124,-0.023041,-0.015412,-0.0032044,0.033417
-0.031891,0.026093,-0.085298,-0.10971,-0.033722,-0.018158,-0.0041199,0.061494
-0.028534,0.010529,-0.084993,-0.08896,-0.036774,-0.013886,-0.011139,0.075227
-0.02121,-0.0035096,-0.074311,-0.076448,-0.030976,0.0050355,-0.01236,0.043183
-0.012665,-0.016327,-0.056916,-0.077668,-0.0206,-0.013581,-0.024872,0.017243
-0.0065614,-0.042573,-0.052644,-0.067597,-0.009308,0.0010681,0.0019837,0.015106
0.0056458,-0.064546,-0.0090028,-0.035554,0.0056458,0.032197,0.036774,0.030365
0.0074769,-0.12345,0.016022,-0.053254,0.024262,0.025177,0.024872,-0.025483
-0.0044251,-0.14939,0.028229,-0.047456,0.029145,0.020905,0.03006,-0.059968
-0.015106,-0.13016,-0.0022889,-0.04715,0.041047,0.020294,0.022736,-0.037079
-0.023041,-0.037995,-0.017853,-0.052338,0.07187,0.0077821,0.0090028,-0.052949
-0.024262,-0.084077,-0.034943,-0.04715,0.055695,0.018158,0.017243,-0.030671
-0.043183,-0.082246,-0.08011,-0.061494,0.033417,0.011139,0.026093,-0.010834
-0.061799,-0.023346,-0.092927,-0.076448,0.044099,-0.013581,0.018158,0.0041199
-0.047761,-0.002594,-0.094148,-0.066682,0.018769,-0.0077821,0.0016785,0.024262
-0.073701,0.026398,-0.11643,-0.092927,-0.014191,-0.012665,-0.031586,0.010529
-0.103,0.083162,-0.11948,-0.12924,-0.011444,-0.015717,-0.014801,0.0053407
-0.087739,0.090486,-0.11704,-0.13443,-0.035248,-0.0050355,-0.010224,0.056001
-0.053864,0.051118,-0.0972,-0.11978,-0.049592,0.018463,0.015106,0.083772
-0.041657,0.013275,-0.077974,-0.10117,-0.048981,0.002594,0.031586,0.07187
0.013581,-0.026093,-0.053254,-0.072175,-0.051728,0.0044251,0.014801,0.082246
0.035554,-0.065766,-0.041962,-0.06302,-0.032807,0.0080873,0.014191,0.05417
0.073701,-0.096284,-0.011444,-0.057527,0.0053407,-0.0032044,0.0071717,0.024872
0.048981,-0.12192,0.010224,-0.04715,0.027314,0.0086976,0.014191,-0.0074769
0.047456,-0.15091,0.042573,-0.025177,0.037079,0.01297,-0.002594,-0.059052
0.033112,-0.12161,-0.0028992,-0.033417,0.05539,0.026703,-0.0035096,-0.056611
0.0013733,-0.121,-0.019989,-0.034943,0.06363,0.027008,-0.0065614,-0.065461
-0.026398,-0.087434,-0.0383,-0.064851,0.060273,0.02121,-0.012055,-0.083467
-0.067903,-0.03769,-0.062715,-0.075837,0.049287,0.017243,0.013275,-0.08835
-0.084993,-0.019379,-0.074922,-0.081636,0.038911,0.031281,0.04654,-0.064546
-0.0972,-0.0080873,-0.13352,-0.075227,0.025177,0.014191,0.05417,-0.014191
-0.088045,0.032502,-0.11429,-0.10086,0.011139,0.0041199,0.041657,0.053254
-0.103,0.065156,-0.10697,-0.11124,-0.002594,-0.011749,0.011444,0.11276
-0.090181,0.058137,-0.098726,-0.11643,-0.012665,-0.032807,-0.023651,0.11551
-0.093233,0.068513,-0.103,-0.10391,-0.027314,-0.019074,-0.016327,0.085908
-0.079805,0.063935,-0.093538,-0.1088,-0.04715,0.0019837,0.00045777,0.061799
-0.077363,0.022126,-0.07126,-0.10697,-0.051423,0.029145,0.051728,0.059663
-0.044404,-0.026093,-0.038911,-0.077058,-0.04593,0.043488,0.056001,0.069734
-0.0035096,-0.066377,-0.030671,-0.06363,-0.024872,0.043183,0.037385,0.070039
0.035554,-0.12375,-0.0090028,-0.046235,-0.0028992,0.030671,0.033417,0.067597
0.053559,-0.16403,0.022126,-0.034943,0.029755,0.028534,0.014801,0.049897
0.077974,-0.14939,0.010529,-0.033112,0.059663,0.005951,-0.029755,0.018158
0.0795,-0.12222,-0.026398,-0.050813,0.060578,-0.0016785,-0.018158,-0.032502
0.048066,-0.10178,-0.025483,-0.050202,0.057221,-0.0032044,-0.023346,-0.10452
0.041352,-0.091402,-0.023957,-0.066682,0.048066,0.010529,-0.011139,-0.13748
0.026093,-0.061799,-0.056001,-0.062409,0.049592,0.013886,-0.013275,-0.11429
-0.0068666,-0.01236,-0.066682,-0.075227,0.036164,-0.0035096,-0.0053407,-0.089265
-0.050813,0.023651,-0.11124,-0.095064,0.022736,-0.013581,-0.0035096,-0.081331
-0.094453,0.055695,-0.12497,-0.10697,0.014801,-0.0038148,-0.019684,-0.050507
-0.11063,0.051423,-0.1268,-0.11337,-0.010529,0.0013733,-0.013275,0.0047303
-0.12131,0.043183,-0.11887,-0.096284,-0.029755,-0.0056458,0.0050355,0.031281
-0.10697,0.041657,-0.067903,-0.099336,-0.0383,0.005951,0.032807,0.10758
-0.092317,0.034028,-0.077363,-0.10636,-0.045624,0.022126,0.047456,0.14267
-0.068818,0.0096132,-0.067903,-0.093233,-0.035859,0.010529,0.029755,0.11398
-0.02884,-0.035554,-0.039826,-0.070954,-0.034333,0.026093,0.031891,0.098421
-0.0028992,-0.086824,-0.013581,-0.070649,-0.022431,0.035554,0.032807,0.069429
0.025788,-0.12222,0.0041199,-0.048981,-0.0053407,0.0206,0.019989,0.02121
0.024262,-0.12161,-0.016938,-0.057527,0.022736,0.016938,0.013581,-0.031891
0.034333,-0.11978,-0.025483,-0.044099,0.046845,0.020294,0.02121,-0.059663
0.041047,-0.10147,-0.039216,-0.05478,0.05539,0.014801,0.024872,-0.057832
0.045624,-0.098726,-0.027008,-0.056611,0.058442,0.012055,0.02182,-0.074006
0.039826,-0.077668,-0.02884,-0.036774,0.059968,0.00076295,0.010834,-0.038605
-0.0086976,-0.03769,-0.077058,-0.075227,0.066682,-0.011749,-0.010224,-0.033417
-0.034943,-0.020294,-0.070344,-0.084688,0.02884,0.0041199,0.0053407,-0.014496
-0.077058,-0.0038148,-0.080415,-0.083467,0.0071717,-0.0041199,0.0099184,0.022736
-0.079805,0.039521,-0.11368,-0.11368,0.011444,-0.00076295,0.009308,0.052949
-0.10727,0.062409,-0.10971,-0.11948,-0.012055,0.012055,0.023957,0.072175
-0.13016,0.084382,-0.11704,-0.11795,-0.041047,0.023041,0.041657,0.066377
-0.11368,0.058442,-0.098116,-0.10636,-0.051118,0.036164,0.05539,0.075532
-0.10117,0.045319,-0.086213,-0.098726,-0.041657,0.045014,0.035554,0.074311
-0.057221,-0.036164,-0.036164,-0.081331,-0.026703,0.022736,0.016022,0.06302
-0.037079,-0.090486,-0.0096132,-0.063325,-0.012665,-0.0032044,-0.0050355,0.051423
0.0047303,-0.097505,-0.023651,-0.052949,0.0080873,-0.0013733,-0.018463,0.019074
0.032807,-0.094453,-0.016327,-0.039216,0.019684,0.00015259,-0.024262,0.0096132
0.043183,-0.10239,-0.0090028,-0.040436,0.033722,-0.013275,-0.022736,-0.028229
0.045014,-0.096895,-0.015412,-0.043488,0.052949,-0.010224,-0.014801,-0.068818
0.043793,-0.12436,0.0071717,-0.036164,0.059358,-0.0013733,0.0074769,-0.088045
0.048066,-0.11978,-0.018769,-0.050507,0.059052,0.0053407,0.0074769,-0.094148
0.031891,-0.069734,-0.057832,-0.091096,0.048066,0.0053407,0.011444,-0.068208
-0.0022889,-0.0074769,-0.085908,-0.073091,0.029145,0.013886,0.030976,-0.045624
-0.018769,-0.0068666,-0.085298,-0.07126,0.022126,0.0062562,0.020294,-0.031281
-0.056611,0.027924,-0.10636,-0.1033,0.023651,-0.0013733,0.014191,-0.01236
-0.10544,0.060273,-0.10849,-0.103,-0.0065614,-0.0022889,0.027008,0.0065614
-0.099336,0.063935,-0.1091,-0.11124,-0.033417,-0.00076295,0.037995,0.035248
-0.12619,0.060273,-0.11032,-0.11063,-0.04593,0.012665,0.09659,0.084077
-0.12802,0.044099,-0.098726,-0.11368,-0.055085,0.005951,-0.015717,0.10361
-0.10513,0.029755,-0.073396,-0.10971,-0.053254,-0.015717,-0.25559,0.11215
-0.068208,-0.039826,-0.046845,-0.069429,-0.037079,-0.0062562,-0.078279,0.14054
-0.033722,-0.064546,-0.018769,-0.055695,-0.0083925,-0.0010681,0.094148,0.13535
-0.021515,-0.039521,-0.01297,-0.062409,0.01297,0.014191,0.11826,0.099947
-0.00015259,-0.070039,0.0074769,-0.05539,0.015412,0.034638,0.11856,0.064546
0.025483,-0.13138,0.010834,-0.026398,0.031586,0.05417,0.093843,0.010529
0.0383,-0.15549,-0.022736,-0.040742,0.053864,0.053254,0.050202,-0.053559
0.054475,-0.11551,-0.016632,-0.052644,0.051728,0.041657,0.020294,-0.12375
0.053864,-0.10849,-0.038911,-0.046845,0.039826,0.022431,-0.020294,-0.14328
0.023957,-0.056001,-0.076753,-0.065461,0.059052,-0.019989,-0.041962,-0.12222
0.009308,-0.026093,-0.095064,-0.079805,0.048981,-0.018158,-0.052644,-0.078889
-0.015106,-0.052338,-0.052033,-0.079194,0.02884,-0.018158,-0.027619,-0.039826
-0.061799,-0.033417,-0.092317,-0.097505,0.023651,-0.019379,-0.023651,-0.012055
-0.088045,0.065156,-0.13779,-0.1088,0.0038148,0.0065614,0.0099184,0.054475
-0.078279,0.092012,-0.1445,-0.096895,-0.02121,0.0041199,0.017853,0.073701
-0.075227,0.061799,-0.070954,-0.11276,-0.038605,0.0041199,0.036774,0.085603
-0.059358,0.028534,-0.074617,-0.10239,-0.044709,0.011139,0.023957,0.090486
-0.052033,-0.00015259,-0.042878,-0.089265,-0.02945,0.022431,0.011749,0.082246
-0.018158,-0.070039,-0.026398,-0.064851,-0.016632,0.019989,0.012055,0.060578
0.034333,-0.16892,-0.059968,-0.048981,-0.010224,0.018158,-0.0028992,0.030365
0.036164,-0.069734,-0.023957,-0.064546,0.012055,0.00015259,-0.022431,-0.031281
0.058442,-0.12497,-0.0080873,-0.069734,0.020905,0.017853,-0.0053407,-0.056001
0.040131,-0.11002,-0.018769,-0.064546,0.02182,0.020294,0.0032044,-0.076753
0.039216,-0.090791,-0.024872,-0.05539,0.037385,0.009308,-0.00076295,-0.10239
0.034943,-0.076143,-0.015412,-0.036774,0.060273,0.0071717,0.011139,-0.089265
0.036164,-0.092317,-0.026703,-0.066682,0.05417,0.0044251,0.019989,-0.067292
-0.015106,-0.045319,-0.053864,-0.070954,0.041047,-0.0099184,0.0090028,-0.035554
-0.06363,0.011444,-0.092927,-0.08835,0.035248,-0.025788,-0.0032044,-0.0032044
-0.12436,0.07187,-0.11276,-0.10239,0.015717,-0.013581,0.022736,0.037995
-0.11704,0.033722,-0.12161,-0.094453,0.0013733,0.014191,0.033112,0.085298
-0.11795,0.032197,-0.07187,-0.08957,-0.012055,0.019989,0.0383,0.10819
-0.11368,0.059663,-0.077974,-0.085908,-0.018463,0.01297,0.060578,0.10666
-0.12741,0.070344,-0.099336,-0.11276,-0.032197,0.034028,0.052949,0.10422
-0.13382,0.049897,-0.091096,-0.0972,-0.041962,0.035248,0.037995,0.068208
-0.10788,-0.0038148,-0.070039,-0.076448,-0.047456,0.041352,0.060578,0.075227
-0.099641,-0.022431,-0.045014,-0.082246,-0.019379,0.030671,0.047761,0.092012
-0.059052,-0.07187,0.015717,-0.075532,0.0041199,0.0206,0.019684,0.087434
0.0056458,-0.10239,0.017548,-0.042878,0.0047303,0.016327,0.02884,0.046235
0.031281,-0.10605,-0.024872,-0.034333,0.026703,0.005951,0.019379,0.00045777
0.049592,-0.098726,-0.042573,-0.038605,0.04715,0.009308,0.0090028,-0.025483
0.061189,-0.12009,-0.037079,-0.062715,0.053254,0.0090028,0.0010681,-0.045624
0.067597,-0.12345,-0.024567,-0.068513,0.075837,-0.0028992,-0.012055,-0.043183
0.068513,-0.13565,-0.012055,-0.058747,0.055695,0.0083925,-0.0047303,-0.030976
0.039826,-0.088655,-0.084382,-0.067597,0.032197,-0.00015259,-0.020905,-0.045014
-0.0074769,-0.010834,-0.10849,-0.08072,0.029145,-0.019074,-0.043488,-0.073396
-0.026398,0.042573,-0.103,-0.090791,0.010834,-0.0053407,-0.028229,-0.066682
-0.047456,0.055695,-0.1088,-0.091096,-0.010834,-0.0050355,-0.010224,-0.043183
-0.069734,0.053254,-0.10025,-0.099947,-0.025483,-0.0022889,0.017853,-0.0090028
-0.074006,0.045319,-0.095979,-0.10941,-0.032502,0.002594,0.035248,0.037079
-0.063935,0.034333,-0.088655,-0.12345,-0.046845,-0.005951,0.011139,0.05417
-0.051728,-0.00076295,-0.077058,-0.099031,-0.040742,0.0013733,0.0096132,0.051728
-0.034943,-0.033722,-0.034943,-0.075532,-0.022126,0.010529,0.0010681,0.043793
-0.0206,-0.052949,-0.031891,-0.070344,-0.01297,0.0206,0.00076295,0.039826
0.0019837,-0.076143,-0.026398,-0.06424,0.00045777,0.031281,0.017853,0.036774
0.019379,-0.10483,0.0035096,-0.049592,0.028229,0.021515,-0.002594,0.013581
0.009308,-0.092012,-0.048371,-0.049592,0.057221,0.0053407,0.035859,0.013886
0.0047303,-0.11612,-0.0056458,-0.045624,0.058137,0.025177,0.050202,0.0047303
0.025483,-0.10971,-0.00015259,-0.053254,0.053864,0.033112,-0.023346,-0.059663
0.031586,-0.1088,-0.027619,-0.050202,0.063935,-0.0041199,-0.061799,-0.10513
0.013275,-0.08072,-0.062104,-0.06363,0.048981,-0.0062562,-0.031586,-0.068208
-0.020294,-0.026703,-0.08011,-0.086824,0.033112,0.014191,0.011139,-0.030976
-0.059052,0.012665,-0.098421,-0.075532,0.020905,0.025483,0.057221,0.0071717
-0.08896,0.034333,-0.090486,-0.091402,-0.0080873,0.031281,0.067903,0.067597
-0.091096,0.063935,-0.10361,-0.11307,-0.016632,0.010224,0.0383,0.067597
-0.076143,0.044099,-0.11368,-0.082856,-0.014496,0.0019837,0.0053407,0.058137
-0.089876,0.060273,-0.095979,-0.095674,-0.011139,0.0022889,0.011749,0.08011
-0.10208,0.048371,-0.091402,-0.10727,-0.016938,-0.0022889,-0.0019837,0.073396
-0.089265,0.026093,-0.053864,-0.099641,-0.032807,-0.0010681,0.012665,0.076143
-0.073701,-0.031891,-0.045624,-0.076448,-0.041047,0.011444,0.01297,0.065461
-0.048981,-0.060578,-0.030365,-0.067597,-0.016327,0.0038148,0.0035096,0.041047
0.013886,-0.099641,-0.0056458,-0.058747,-0.00045777,0.009308,0.0056458,0.0053407
0.063325,-0.11032,0.0022889,-0.042267,0.018158,0.018769,0.0050355,-0.013581
0.041047,-0.11368,-0.0053407,-0.039521,0.037079,0.0083925,-0.00076295,-0.02121
0.031586,-0.11734,-0.027619,-0.038605,0.051423,0.0083925,0.0074769,-0.031586
0.031891,-0.11185,-0.031891,-0.047456,0.05539,0.018463,0.02884,-0.047761
0.022126,-0.10025,-0.038605,-0.060273,0.039521,0.015106,0.019989,-0.087739
-0.0068666,-0.071565,-0.059358,-0.070649,0.033722,0.023957,0.016938,-0.091707
-0.019684,-0.02884,-0.072175,-0.082246,0.036164,0.026703,0.018158,-0.067597
-0.041962,0.009308,-0.092927,-0.078889,0.027619,0.01297,-0.0010681,-0.035248
-0.025483,0.031281,-0.1088,-0.087739,0.0077821,0.0047303,-0.0071717,0.013275
-0.039826,0.041352,-0.1088,-0.11582,-0.020905,-0.0099184,0.0056458,0.043793
-0.052644,0.039216,-0.095369,-0.11673,-0.032197,-0.005951,0.019379,0.066377
-0.075532,0.038605,-0.094148,-0.089265,-0.034638,-0.00076295,0.016938,0.083467
-0.10849,0.041657,-0.083162,-0.094453,-0.01297,-0.0074769,0.0068666,0.075227
-0.10361,0.0038148,-0.064851,-0.085603,-0.0096132,0.0050355,0.014801,0.08957
-0.091096,-0.020294,-0.049287,-0.083162,-0.022126,0.014496,0.02884,0.085603
-0.057221,-0.063325,-0.018463,-0.058137,-0.015412,0.023041,0.031891,0.078279
-0.025483,-0.10391,-0.00015259,-0.060273,-0.00076295,0.018769,0.027619,0.067292
-0.0028992,-0.10971,-0.011749,-0.052949,0.018158,0.013886,0.016022,0.041352
0.026703,-0.11887,-0.010529,-0.041352,0.036774,0.0077821,0.0035096,0.03006
0.022126,-0.09659,-0.029145,-0.046845,0.055695,0.0062562,0.0038148,0.009308
0.033722,-0.10544,-0.026093,-0.05478,0.063935,0.0068666,-0.0074769,-0.039521
0.019379,-0.08835,-0.038605,-0.072175,0.055085,0.0086976,-0.009308,-0.063325
-0.022431,-0.052338,-0.06424,-0.065156,0.044099,0.014801,0.0041199,-0.068818
-0.028534,-0.025483,-0.086824,-0.084993,0.028229,0.0071717,0.0019837,-0.068818
-0.022431,0.015717,-0.097505,-0.093538,0.0050355,0.0038148,0.0041199,-0.057527
-0.031586,0.057832,-0.10849,-0.10697,-0.0071717,0.0032044,0.0086976,-0.035554
-0.037385,0.058442,-0.11551,-0.10849,-0.011444,0.0053407,0.0080873,0.005951
-0.053864,0.031586,-0.087434,-0.08896,-0.036774,0.016938,0.012665,0.035554
-0.077363,0.043488,-0.10025,-0.10483,-0.04593,0.026093,0.025788,0.051423
-0.075532,0.021515,-0.07126,-0.10666,-0.035248,0.010529,0.025177,0.057221
-0.06302,-0.017853,-0.04593,-0.078279,-0.023651,0.0071717,0.016938,0.070039
-0.052949,-0.035859,-0.039216,-0.049287,-0.0065614,0.013275,0.02884,0.06424
-0.015412,-0.090181,-0.016327,-0.058442,0.015106,0.015412,0.024872,0.033722
0.005951,-0.13809,0.0077821,-0.055085,0.031586,0.02121,0.013275,0.036164
0.0035096,-0.11368,-0.00076295,-0.044099,0.040131,0.02884,0.020905,0.019074
0.021515,-0.11673,-0.0047303,-0.061799,0.044099,0.026398,0.012665,0.00045777
0.060273,-0.11765,-0.039826,-0.068513,0.04715,0.017243,-0.002594,-0.0062562
0.081941,-0.095369,-0.028534,-0.050507,0.047761,0.0099184,-0.019379,-0.061799
0.043488,-0.054475,-0.05478,-0.066377,0.049287,-0.0090028,-0.023041,-0.099336
0.0010681,0.018158,-0.090181,-0.074617,0.043488,-0.00076295,-0.031586,-0.086213
-0.033722,0.0019837,-0.099336,-0.085298,0.015717,-0.0038148,-0.0062562,-0.090181
-0.069123,0.014191,-0.10727,-0.09659,0.010529,-0.017243,0.002594,-0.058137
-0.095369,0.043183,-0.12833,-0.098726,-0.0083925,-0.016327,0.015106,0.033722
-0.103,0.06363,-0.11337,-0.11124,-0.034638,0.0010681,0.019379,0.093843
-0.10513,0.04593,-0.098421,-0.097505,-0.048676,0.005951,0.012055,0.077668
-0.11337,0.025788,-0.079194,-0.082246,-0.038911,0.00015259,0.010529,0.061799
-0.081331,-0.041657,-0.026093,-0.074311,-0.022431,0.0086976,0.014801,0.063325
-0.058747,-0.070954,-0.031891,-0.065766,-0.023651,0.02121,0.015412,0.056001
-0.049287,-0.043793,-0.016022,-0.059052,-0.0206,0.01236,0.043793,0.051423
-0.019379,-0.070954,-0.013581,-0.05539,-0.0022889,0.02121,0.049287,0.036774
0.014801,-0.094148,0.010224,-0.060273,0.028229,0.0383,0.048371,0.019989
0.063935,-0.12284,-0.0065614,-0.041352,0.056916,0.035554,0.031891,0.009308
0.051423,-0.11276,-0.034333,-0.055695,0.059052,0.014496,0.011749,-0.018769
0.037995,-0.094148,-0.046235,-0.061494,0.056916,0.0041199,-0.011444,-0.023346
0.024262,-0.07187,-0.030976,-0.065461,0.03769,-0.0047303,-0.011444,-0.023041
-0.016938,-0.053864,-0.05478,-0.078279,0.03006,0.0077821,0.0013733,-0.024262
-0.041047,-0.016938,-0.07126,-0.085603,0.023041,0.018463,0.0035096,-0.00076295
-0.066682,0.017853,-0.099031,-0.11124,0.0096132,0.016938,0.014191,0.033722
-0.070954,0.034333,-0.10483,-0.11643,-0.00076295,0.020294,0.036774,0.053254
-0.069429,0.040742,-0.11429,-0.10666,-0.016632,0.014191,0.027924,0.054475
-0.053254,0.055695,-0.1796,-0.10361,-0.027314,0.013275,0.022736,0.034333
-0.025483,0.0071717,-0.069429,-0.092317,-0.034333,0.0065614,0.018769,0.037079
-0.045624,0.022126,-0.053864,-0.072175,-0.019684,-0.005951,-0.0083925,0.033722
-0.047761,-0.017548,-0.10147,-0.068513,-0.021515,-0.0050355,-0.017243,0.025483
-0.044709,-0.019989,-0.017548,-0.063325,-0.00045777,-0.010834,-0.0071717,0.020905
-0.033112,-0.065461,0.01236,-0.068208,0.0028992,0.0019837,0.017243,0.037995
-0.011139,-0.090486,-0.0019837,-0.061799,0.0010681,0.035248,0.022736,0.059968
0.012665,-0.088655,-0.0077821,-0.059052,0.015106,0.050202,0.035248,0.028229
0.023041,-0.098421,-0.01236,-0.042878,0.03006,0.040742,0.041047,-0.00045777
0.024872,-0.11948,-0.030671,-0.057527,0.047456,0.016938,0.0032044,-0.066987
0.018769,-0.12406,-0.017548,-0.055695,0.067903,0.00076295,-0.019074,-0.11856
0.005951,-0.099336,-0.017853,-0.055695,0.059052,0.00015259,-0.027314,-0.12222
-0.016938,-0.049897,-0.062715,-0.078584,0.047456,-0.0099184,-0.014191,-0.085298
-0.024872,-0.016022,-0.091402,-0.099031,0.028229,-0.011444,-0.0028992,-0.045319
-0.063325,0.029755,-0.10452,-0.085298,0.017548,-0.0090028,-0.0028992,-0.042878
-0.075227,0.040131,-0.11337,-0.10147,-0.009308,-0.0077821,0.0047303,0.012665
-0.067903,0.048371,-0.11673,-0.11246,-0.028534,-0.00076295,0.0035096,0.051118
-0.094148,0.04715,-0.10636,-0.1091,-0.035248,-0.0056458,0.0090028,0.056306
-0.10025,0.064546,-0.098726,-0.10513,-0.040436,0.002594,0.02121,0.066072
-0.095674,0.040436,-0.080415,-0.085603,-0.032197,0.014191,0.03006,0.070344
-0.051728,-0.0044251,-0.050202,-0.085603,-0.028229,0.0099184,0.02945,0.070344
-0.024567,-0.05417,-0.018158,-0.064851,-0.0086976,0.018769,0.020294,0.08011
-0.013581,-0.090791,-0.0080873,-0.061494,0.005951,0.032197,0.0056458,0.076753
0.019074,-0.1442,-0.0038148,-0.052644,0.023651,0.04654,0.015717,0.055085
0.033112,-0.12253,-0.011444,-0.06302,0.037079,0.031281,0.009308,0.035859
0.031891,-0.12955,0.0071717,-0.044709,0.042878,0.014801,0.011444,-0.00015259
0.037385,-0.1323,-0.022126,-0.036164,0.047456,0.01297,0.02182,-0.022736
0.030976,-0.087739,-0.038605,-0.051118,0.058442,-0.0062562,-0.0083925,-0.036774
0.0090028,-0.061494,-0.07187,-0.071565,0.051728,-0.0074769,-0.015106,-0.050507
-0.0019837,-0.010834,-0.099336,-0.072786,0.028229,0.014191,0.0068666,-0.042878
-0.023651,0.028534,-0.12863,-0.079805,0.026093,0.0019837,0.015717,-0.024872
-0.0071717,0.042267,-0.078279,-0.067597,0.02945,-0.0028992,0.026093,-0.029145
-0.051728,0.048676,-0.089265,-0.098726,0.012055,-0.0032044,0.034028,-0.045014
-0.092317,0.023651,-0.10086,-0.13535,-0.018463,-0.009308,0.044404,-0.0035096
-0.089876,-0.012055,-0.065766,-0.098726,-0.053864,0.016022,0.062104,0.053559
-0.10239,0.022126,-0.10697,-0.08957,-0.049897,0.015412,0.052033,0.099641
-0.092012,0.03006,-0.077058,-0.083162,-0.034638,0.0090028,0.08011,0.11185
-0.067292,0.019684,-0.052644,-0.072786,-0.030671,0.016938,0.016022,0.095369
-0.033417,-0.044404,-0.029145,-0.070649,-0.0074769,-0.011139,-0.27054,0.027619
-0.016938,-0.08835,-0.0080873,-0.051423,0.0090028,-0.018158,-0.2092,-0.0010681
0.0016785,-0.094759,0.0022889,-0.052949,0.023957,0.01236,0.019074,-0.025177
0.0053407,-0.11673,-0.014801,-0.026703,0.050202,0.032807,0.092622,-0.0071717
0.040436,-0.1207,-0.023041,-0.044709,0.060578,0.031586,0.05539,-0.019379
0.048371,-0.11276,-0.022431,-0.058442,0.061799,0.028534,0.039826,0.0096132
0.050507,-0.12039,0.0099184,-0.060273,0.057832,0.028534,0.043488,0.0047303
0.017243,-0.095369,-0.059358,-0.082246,0.043183,0.014191,0.049897,-0.060883
-0.023346,-0.019684,-0.099031,-0.086519,0.038911,0.013275,0.039826,-0.086824
-0.045014,0.026398,-0.11643,-0.10117,0.015717,0.0022889,0.016022,-0.069734
-0.055085,0.044709,-0.12924,-0.091096,-0.013275,-0.013886,-0.014496,-0.042878
-0.076753,0.069123,-0.10636,-0.12467,-0.032502,0.00045777,-0.0074769,0.0032044
-0.093233,0.079805,-0.098421,-0.1146,-0.042573,0.016632,-0.0044251,0.041962
-0.087129,0.03769,-0.082551,-0.1091,-0.033722,-0.00076295,-0.045014,0.11246
-0.091402,0.031891,-0.077058,-0.0972,-0.027008,-0.009308,-0.033417,0.14694
-0.082246,-0.00045777,-0.04593,-0.074311,-0.031281,-0.0010681,-0.0019837,0.12589
-0.067292,-0.024872,-0.054475,-0.077363,-0.029145,0.043183,0.076143,0.11307
-0.01236,-0.066987,-0.034943,-0.065461,-0.017243,0.032197,0.077974,0.063325
0.053864,-0.10819,-0.010224,-0.059663,0.0068666,0.026398,0.055695,0.017548
0.039826,-0.12192,-0.012055,-0.04715,0.023651,0.044099,0.059968,0.0096132
0.039216,-0.11093,0.0016785,-0.024567,0.045014,0.033112,0.027619,-0.039826
0.016632,-0.098726,-0.012055,-0.040131,0.069734,0.0077821,0.0056458,-0.086824
-0.002594,-0.10086,-0.020294,-0.082246,0.070039,0.010529,-0.0090028,-0.10422
-0.025177,-0.074922,-0.031891,-0.077668,0.040131,0.028534,0.013275,-0.082856
-0.044404,-0.083467,-0.034943,-0.034333,0.025177,0.026093,0.018769,-0.034333
-0.04593,-0.030671,-0.10117,-0.057221,0.017243,0.022736,0.030365,-0.0047303
-0.058747,0.040742,-0.13443,-0.10727,0.031281,-0.014191,0.0074769,0.0071717
-0.07187,0.062409,-0.12467,-0.121,0.013275,-0.03006,-0.033722,0.012665
-0.079194,0.068513,-0.11704,-0.10971,-0.016632,-0.017243,-0.030671,0.033722
-0.070954,0.056306,-0.092317,-0.083772,-0.019379,-0.0071717,-0.0013733,0.055695
-0.060578,0.031891,-0.082856,-0.075532,-0.036469,0.018158,0.022126,0.091402
-0.041962,0.015106,-0.067903,-0.10666,-0.032197,0.01236,0.024262,0.087739
-0.013275,-0.030365,-0.032197,-0.082551,-0.025788,0.0038148,0.015412,0.068513
0.0016785,-0.044709,-0.033722,-0.065766,-0.0096132,-0.0035096,0.0028992,0.034943
0.031586,-0.088045,-0.025483,-0.068818,0.0080873,0.016022,-0.010834,0.009308
0.06424,-0.14237,0.022126,-0.05478,0.0071717,0.019379,0.023651,-0.010529
0.066682,-0.14237,-0.024262,-0.051118,0.02182,0.0086976,0.014191,-0.039216
0.059663,-0.11795,-0.031586,-0.041352,0.044099,0.0022889,-0.010529,-0.074006
0.041352,-0.11673,-0.013581,-0.033112,0.035554,-0.0010681,-0.013581,-0.098116
0.059358,-0.12741,0.0044251,-0.027008,0.051728,-0.0050355,-0.023041,-0.10422
0.034333,-0.068513,-0.052033,-0.058747,0.054475,-0.0062562,-0.036774,-0.082856
-0.0074769,-0.022126,-0.087129,-0.075837,0.046845,-0.013886,-0.041352,-0.055085
-0.051118,0.013275,-0.10452,-0.095674,0.026093,-0.005951,-0.0206,-0.020294
-0.092317,0.044099,-0.11429,-0.093233,0.005951,0.010529,0.022126,0.022736
-0.1323,0.081331,-0.12863,-0.10727,-0.0086976,0.00045777,0.027314,0.045319
-0.1564,0.066072,-0.091402,-0.1207,-0.028534,0.0022889,0.032197,0.082551
-0.1384,0.043183,-0.075227,-0.12985,-0.038605,0.01236,0.044404,0.11826
-0.11917,0.042267,-0.092012,-0.10971,-0.049592,0.03006,0.073396,0.14786
-0.099947,0.013275,-0.068513,-0.087129,-0.043488,0.036164,0.065461,0.14664
-0.070039,-0.025788,-0.043183,-0.062715,-0.032197,0.031281,0.039216,0.11887
-0.035859,-0.04593,-0.052644,-0.057221,-0.00076295,0.019989,0.0068666,0.074617
-0.020905,-0.084688,-0.00045777,-0.056611,0.027924,0.0022889,-0.0041199,0.037995
-0.019074,-0.10239,0.0062562,-0.035554,0.034333,0.0047303,0.012055,0.012665
-0.020294,-0.10788,-0.012665,-0.02884,0.041352,0.027314,0.01297,-0.019684
0.015412,-0.10636,-0.018769,-0.036774,0.049287,0.026398,0.016938,-0.027008
0.045624,-0.099947,-0.033112,-0.058442,0.056916,0.012665,0.002594,-0.024567
0.036774,-0.09659,-0.034333,-0.07248,0.050202,0.0086976,-0.0071717,-0.077974
0.015106,-0.057832,-0.07187,-0.072786,0.031586,0.010834,-0.0044251,-0.087129
-0.0068666,-0.038911,-0.067903,-0.10758,0.031586,0.020905,-0.019074,-0.084077
-0.022126,0.0010681,-0.0795,-0.093233,0.0013733,0.013275,-0.015717,-0.063935
-0.033112,0.027619,-0.090486,-0.093843,-0.024567,-0.0047303,-0.013581,-0.010529
-0.061189,0.041352,-0.10361,-0.09659,-0.025788,-0.0068666,-0.012055,0.0080873
-0.058747,0.067292,-0.097505,-0.11551,-0.020294,-0.01297,-0.016938,0.0099184
-0.062104,0.076143,-0.11307,-0.096284,-0.027008,-0.0032044,-0.01297,0.048066
-0.059358,0.011749,-0.11337,-0.090791,-0.033417,0.012665,-0.0032044,0.067597
-0.048676,-0.023957,-0.058747,-0.085298,-0.015412,0.0032044,0.013886,0.067903
-0.031586,-0.042573,-0.030365,-0.083162,-0.0071717,0.0065614,0.016022,0.059968
-0.015412,-0.082551,-0.038605,-0.058442,-0.010224,0.010529,0.027008,0.067597
0.0086976,-0.1268,0.030976,-0.029145,0.0071717,0.016327,0.036164,0.033417
0.022126,-0.11398,-0.01236,-0.041047,0.035248,0.025177,0.025483,0.019074
0.039216,-0.11948,-0.03006,-0.051423,0.041047,0.025483,0.024262,-0.024262
0.025788,-0.11795,-0.025483,-0.053559,0.048066,0.018158,0.02121,-0.048676
0.037385,-0.13748,-0.012055,-0.049592,0.065156,0.00045777,0.009308,-0.0383
0.014191,-0.08835,-0.049897,-0.079805,0.065156,0.0028992,0.018769,-0.041047
-0.0074769,-0.016632,-0.074311,-0.084688,0.03769,0.0044251,0.013275,-0.047761
-0.030671,0.027314,-0.08835,-0.083467,0.016022,0.0044251,0.0013733,-0.02884
-0.070039,0.033417,-0.072786,-0.078584,0.015106,-0.016327,0.010529,-0.015412
-0.096895,0.038605,-0.11643,-0.1033,0.0019837,-0.013275,0.002594,-0.00045777
-0.11337,0.065461,-0.11032,-0.099947,-0.019074,-0.0099184,0.0038148,0.044404
-0.10971,0.057221,-0.10208,-0.11582,-0.035248,0.0019837,0.0065614,0.06424
-0.10605,0.037995,-0.091402,-0.089876,-0.034943,0.017853,-0.0035096,0.092317
-0.076753,0.005951,-0.065766,-0.086824,-0.042573,0.012665,0.023346,0.10605
-0.040436,-0.029755,-0.053864,-0.078889,-0.025483,0.0019837,0.002594,0.091707
-0.023651,-0.05539,-0.029755,-0.066987,-0.01297,0.014191,0.0013733,0.065461
0.0053407,-0.096284,0.012055,-0.048981,-0.0065614,0.026398,0.016632,0.031281
0.034333,-0.121,-0.011749,-0.061189,0.019989,0.01297,0.010529,-0.0062562
0.049287,-0.1323,-0.0206,-0.058137,0.047456,0.013275,0.015106,-0.024872
0.07187,-0.12467,-0.023957,-0.057527,0.042878,0.028534,0.020294,-0.067597
0.059968,-0.10819,-0.044099,-0.057527,0.051728,0.015412,0.009308,-0.10849
0.053864,-0.099641,-0.034943,-0.050202,0.051118,0.00015259,-0.0022889,-0.11643
0.02182,-0.087739,-0.032807,-0.050813,0.048066,-0.0090028,-0.022126,-0.11337
-0.0206,-0.0053407,-0.08072,-0.083162,0.045624,-0.011139,-0.033112,-0.077668
-0.04654,0.023346,-0.087434,-0.098421,0.029145,-0.023957,-0.04654,-0.026398
-0.074617,0.085908,-0.11856,-0.099031,-0.011139,-0.0032044,-0.013581,0.036774
-0.092012,0.079194,-0.095369,-0.089265,-0.025788,0.0038148,0.0099184,0.067597
-0.11582,0.04654,-0.12314,-0.092317,-0.038605,0.0041199,0.012665,0.076143
-0.13474,0.051118,-0.11124,-0.12467,-0.030671,0.0068666,0.038911,0.084382
-0.11551,0.039826,-0.083162,-0.12161,-0.036774,0.018769,0.051728,0.11887
-0.10178,0.022736,-0.059968,-0.095369,-0.04715,0.039216,0.051118,0.1503
-0.070954,-0.015412,-0.049287,-0.08835,-0.030365,0.032197,0.057221,0.14542
-0.014801,-0.059358,-0.023957,-0.059358,-0.012055,0.032197,0.044404,0.092622
0.032197,-0.14023,0.036774,-0.016632,0.013581,0.034028,0.041352,0.030365
0.05539,-0.16098,0.016327,-0.0071717,0.031586,0.019989,0.043183,-0.024872
0.065156,-0.14389,-0.014191,-0.047761,0.059663,0.013275,0.0090028,-0.072175
0.052033,-0.13382,-0.036469,-0.061799,0.059052,0.02945,0.020294,-0.077058
0.03769,-0.095979,-0.034028,-0.051118,0.046235,0.028229,0.027924,-0.085298
0.024262,-0.035859,-0.045014,-0.056916,0.039521,0.02121,0.027008,-0.062715
-0.015717,-0.03769,-0.07248,-0.077363,0.031891,0.010224,0.044404,-0.059358
0.010834,-0.048981,-0.078584,-0.069734,0.017853,-0.00015259,-0.06363,-0.041047
-0.010834,-0.0083925,-0.12619,-0.085298,0.015412,-0.035859,-0.31174,-0.046845
-0.063325,0.028534,-0.093233,-0.10483,0.013275,-0.057832,-0.14023,-0.027008
-0.10575,0.032197,-0.086213,-0.10758,0.0080873,-0.041962,0.051118,0.041657
-0.14878,0.056001,-0.099336,-0.11673,-0.02884,-0.0068666,0.073701,0.11765
-0.15488,0.049592,-0.10361,-0.10452,-0.049897,0.015106,0.073396,0.089265
-0.11246,0.019074,-0.076448,-0.087739,-0.053254,0.045624,0.084382,0.051728
-0.075532,-0.016632,-0.036469,-0.086824,-0.041352,0.035554,0.060273,0.06424
-0.043488,-0.021515,-0.054475,-0.065766,-0.015412,0.01297,-0.0083925,0.013275
-0.030671,0.0047303,-0.026398,-0.051728,-0.0028992,-0.0041199,-0.056001,-0.018463
0.023041,-0.057832,-0.011444,-0.050813,0.011139,0.0047303,-0.024262,-0.044709
0.049897,-0.14237,-0.0038148,-0.056611,0.034028,0.028534,0.037995,-0.035859
0.067292,-0.14786,-0.037995,-0.065461,0.055695,0.0071717,0.028229,0.012665
0.061189,-0.11978,-0.020294,-0.060578,0.051423,0.0053407,0.019989,-0.0022889
0.056001,-0.11246,-0.013581,-0.04715,0.051118,0.0041199,0.035248,-0.027008
0.042878,-0.084382,-0.052338,-0.052644,0.05417,-0.0022889,0.034333,-0.029145
0.034028,-0.045319,-0.069429,-0.078279,0.045624,0.00076295,0.0038148,-0.043488
0.010529,-0.01297,-0.093538,-0.095064,0.030365,-0.0090028,-0.0065614,-0.050507
-0.039826,0.02945,-0.091096,-0.10178,0.01297,-0.0096132,-0.01297,-0.041962
-0.071565,0.041962,-0.077058,-0.11063,-0.0074769,-0.009308,-0.002594,-0.0056458
-0.10727,0.057221,-0.10727,-0.10971,-0.030976,-0.0080873,0.0096132,0.027619
-0.12558,0.057527,-0.10147,-0.11856,-0.023651,0.0062562,0.024262,0.06363
-0.12741,0.047456,-0.088655,-0.098726,-0.045319,0.027008,0.034333,0.087739
-0.12039,0.018158,-0.087434,-0.094759,-0.060883,0.035554,0.04715,0.10025
-0.073091,-0.019379,-0.058747,-0.08072,-0.0383,0.039216,0.03769,0.11063
-0.019684,-0.088655,-0.0074769,-0.055695,-0.0074769,0.034638,0.027314,0.084688
0.02182,-0.14694,0.016327,-0.037385,0.014801,0.014496,0.010834,0.05539
0.0077821,-0.095369,-0.011444,-0.036469,0.03006,0.0028992,0.00076295,0.023346
0.026703,-0.090486,-0.020905,-0.05417,0.034333,0.020294,0.0035096,0.0019837
0.040436,-0.076448,-0.042878,-0.046235,0.039826,0.024567,0.015412,-0.023346
0.044099,-0.093538,-0.025788,-0.048371,0.056001,0.0080873,0.0099184,-0.052033
0.033417,-0.098116,-0.028229,-0.054475,0.069123,-0.013581,-0.0047303,-0.096895
-0.017548,-0.055695,-0.051728,-0.07126,0.054475,0.002594,0.013275,-0.088045
-0.053559,-0.018463,-0.073396,-0.090791,0.033112,0.026398,0.031891,-0.052033
-0.065766,0.0096132,-0.098726,-0.11856,-0.00076295,0.032807,0.059052,0.040436
-0.061494,0.017548,-0.077974,-0.095064,-0.024567,0.026093,0.0383,0.092622
-0.059052,0.037385,-0.10056,-0.10056,-0.013581,0.0053407,0.0053407,0.067292
-0.070954,0.047761,-0.11307,-0.089265,-0.01236,-0.0028992,-0.025177,0.056001
-0.087739,0.051423,-0.11337,-0.095674,-0.034638,-0.010224,-0.024567,0.055695
-0.081025,0.04715,-0.094453,-0.10788,-0.032197,-0.0383,-0.031586,0.033722
-0.039521,-0.00015259,-0.059358,-0.089876,-0.027314,-0.035859,-0.031281,0.025177
-0.039216,-0.0056458,-0.065156,-0.07248,-0.027008,0.012055,0.014801,0.042878
-0.033722,-0.048066,-0.034028,-0.076753,-0.0047303,0.036774,0.023346,0.019379
-0.013581,-0.092317,-0.010224,-0.057221,0.0065614,0.030671,0.0041199,0.03006
0.025177,-0.12558,-0.002594,-0.044099,0.0077821,0.030671,0.023041,0.019684
0.043183,-0.16159,0.030365,-0.023346,0.030976,0.032197,0.027314,-0.015717
0.037079,-0.168,0.014191,-0.047456,0.053559,0.023957,0.016022,-0.062715
0.020294,-0.11063,-0.059358,-0.050813,0.058137,0.011139,0.00076295,-0.091707
0.0071717,-0.070039,-0.04715,-0.059663,0.053559,-0.0013733,-0.011139,-0.081025
-0.018158,-0.036469,-0.065156,-0.084688,0.059663,-0.011444,-0.02121,-0.041352
-0.012665,-0.0086976,-0.084382,-0.075837,0.037995,-0.016327,-0.020294,-0.022431
-0.039216,0.027619,-0.10605,-0.09781,0.002594,-0.0068666,-0.0019837,-0.014191
-0.053864,0.044709,-0.093538,-0.11093,0.0038148,-0.005951,-0.0053407,0.0096132
-0.067292,0.04715,-0.10513,-0.099031,-0.022431,-0.0032044,-0.0019837,0.0099184
-0.059052,0.053864,-0.10239,-0.096284,-0.044709,0.016938,0.017548,0.019684
-0.053254,0.022431,-0.092317,-0.08835,-0.043488,0.019074,0.037079,0.078279
-0.066072,0.021515,-0.11124,-0.10788,-0.037079,0.010529,0.020294,0.045624
-0.030671,-0.023957,-0.062104,-0.081331,-0.029755,0.016022,0.005951,0.017243
-0.0035096,-0.08072,-0.032197,-0.066377,-0.015106,0.012055,0.0090028,0.02884
-0.0056458,-0.073396,-0.034638,-0.060273,0.014191,0.0022889,-0.016632,0.023041
0.0053407,-0.087434,-0.0022889,-0.044709,0.019989,0.013275,0.013581,0.041047
0.0099184,-0.10025,-0.01297,-0.038911,0.037385,0.011444,0.03006,0.030976
-0.0065614,-0.094148,-0.0077821,-0.033417,0.056001,0.0047303,0.023957,0.016632
-0.0080873,-0.077974,-0.0090028,-0.042267,0.069123,0.0083925,0.023346,0.0010681
-0.002594,-0.07187,-0.022126,-0.056916,0.072175,0.01236,0.0074769,-0.02121
-0.00076295,-0.059968,-0.066987,-0.075532,0.049897,0.01297,0.016022,-0.0383
-0.017548,-0.039826,-0.076448,-0.098726,0.023041,0.025483,0.022126,-0.052033
-0.031891,-0.023957,-0.084993,-0.093538,-0.0013733,0.037079,0.035248,-0.024872
-0.045624,0.0041199,-0.099336,-0.085603,-0.0050355,0.01236,0.031586,0.014801
-0.08957,0.057221,-0.093538,-0.10788,-0.0022889,-0.014801,0.00076295,0.037995
-0.11521,0.062715,-0.10483,-0.11093,-0.018463,-0.013275,0.0038148,0.051423
-0.11948,0.049592,-0.088655,-0.097505,-0.039521,-0.0022889,0.011139,0.059663
-0.081941,0.021515,-0.070954,-0.096284,-0.041657,-0.013275,-0.00015259,0.08072
-0.059663,0.0080873,-0.075837,-0.099336,-0.024872,-0.023957,-0.0053407,0.081331
-0.069429,-0.033417,-0.043793,-0.092622,-0.019684,-0.011749,0.0056458,0.059358
-0.031891,-0.048981,-0.012665,-0.065156,-0.016938,0.027314,0.045014,0.055085
-0.0053407,-0.049592,-0.0068666,-0.049287,0.0053407,0.043488,0.057832,0.024262
0.028229,-0.09659,-0.0090028,-0.079194,0.022736,0.036164,0.02121,-0.025788
0.048981,-0.1445,-0.014496,-0.041657,0.016022,0.04715,0.0028992,-0.069429
0.06424,-0.14786,-0.042878,-0.035554,0.031891,0.016938,-0.010529,-0.10086
0.053559,-0.10971,-0.044404,-0.046845,0.061799,-0.014801,-0.026398,-0.10605
0.0383,-0.090791,-0.044099,-0.03769,0.045014,-0.013886,-0.019379,-0.07126
0.026093,-0.081941,-0.022431,-0.045624,0.041962,-0.014801,-0.0035096,-0.059968
0.0074769,-0.072175,-0.034638,-0.077363,0.048066,-0.032807,-0.024262,-0.033112
-0.029755,-0.017853,-0.072786,-0.079805,0.024262,-0.025483,-0.012055,0.013886
-0.063325,0.015106,-0.10727,-0.086519,-0.0050355,-0.009308,-0.0050355,0.057832
-0.083467,0.048676,-0.13565,-0.1088,0.00045777,-0.014191,-0.0019837,0.079805
-0.093233,0.066072,-0.12833,-0.12375,-0.024262,-0.0047303,0.0016785,0.059052
-0.070649,0.048676,-0.099031,-0.11032,-0.048676,0.0062562,0.021515,0.072175
-0.073701,0.060578,-0.095064,-0.10483,-0.04715,0.0099184,0.040436,0.065766
-0.06363,0.044709,-0.05417,-0.10117,-0.035554,0.011139,0.013275,0.035248
-0.053254,0.013886,-0.052949,-0.089876,-0.02884,0.040131,0.016022,0.020905
-0.039826,-0.02884,-0.055085,-0.083772,-0.017548,0.064546,0.01297,-0.041962
-0.024567,-0.068513,-0.017853,-0.075837,0.00045777,0.060578,-0.0090028,-0.04715
0.0050355,-0.13596,0.0206,-0.036164,0.014191,0.037385,0.026703,-0.00045777
0.015717,-0.12985,-0.037079,-0.020905,0.036164,0.014801,0.033112,0.002594
0.023041,-0.16434,-0.00076295,-0.026093,0.059358,0.0065614,0.016632,-0.0010681
0.028229,-0.168,0.037385,-0.027008,0.056916,0.0010681,0.0071717,0.0019837
0.023957,-0.121,-0.046845,-0.058747,0.066682,-0.013886,0.00076295,-0.0083925
-0.0019837,-0.070344,-0.077974,-0.061799,0.064546,-0.02121,0.0038148,-0.00045777
-0.031586,0.0096132,-0.10117,-0.073701,0.049592,-0.016327,0.0080873,0.0010681
-0.041352,0.040131,-0.10269,-0.10849,0.033417,-0.0053407,0.0013733,0.019074
-0.059968,0.068208,-0.11276,-0.12436,-0.010529,0.0050355,0.013886,0.027924
-0.064546,0.059968,-0.11032,-0.11185,-0.046845,0.023041,0.031586,0.036774
-0.087739,0.054475,-0.10147,-0.11032,-0.051118,0.02121,0.030365,0.057221
-0.091707,0.037385,-0.0972,-0.11093,-0.04654,0.016327,0.031891,0.056001
-0.076143,0.010224,-0.07126,-0.10361,-0.038911,0.013886,0.031586,0.047761
-0.061189,-0.00076295,-0.083467,-0.068818,-0.027314,0.0038148,0.018158,0.059052
-0.052949,-0.01236,-0.048981,-0.076448,-0.015412,0.0071717,0.021515,0.066682
-0.020905,-0.066987,-0.017548,-0.077058,0.0016785,0.017243,0.027924,0.042878
-0.00015259,-0.092622,0.00015259,-0.055695,0.0099184,0.022736,0.01297,0.017853
0.01297,-0.11826,-0.0065614,-0.042573,0.024872,0.026703,-0.0022889,-0.016327
0.023346,-0.12802,0.0065614,-0.02945,0.039216,0.020294,0.0010681,-0.029145
0.014191,-0.12039,-0.01236,-0.03769,0.06363,0.010224,0.011139,-0.046845
0.011139,-0.095369,-0.027924,-0.048371,0.066377,0.015106,-0.0035096,-0.084382
0.024262,-0.07187,-0.045014,-0.075227,0.053559,0.024262,0.00076295,-0.070649
0.012055,-0.044099,-0.069429,-0.068513,0.040131,0.019989,0.017548,-0.043793
-0.017548,-0.0035096,-0.094453,-0.087434,0.026703,0.0083925,0.034333,-0.0050355
-0.036774,0.018158,-0.094148,-0.089876,0.0080873,0.010224,0.032807,0.011139
-0.057221,0.044709,-0.098421,-0.11276,-0.0047303,-0.0080873,0.031891,0.0096132
-0.07187,0.040131,-0.10605,-0.103,-0.019684,-0.00015259,0.029145,0.039521
-0.087434,0.049592,-0.10971,-0.12192,-0.02884,0.0062562,0.040131,0.040131
-0.095979,0.040131,-0.086213,-0.10849,-0.0383,0.0044251,0.044404,0.024262
-0.0795,0.011444,-0.084077,-0.075227,-0.041352,-0.0032044,-0.16281,0.043793
-0.031586,-0.018158,-0.072175,-0.075837,-0.030365,-0.012665,-0.2504,0.038911
0.0016785,-0.055695,-0.015412,-0.070649,-0.0083925,0.0044251,-0.0096132,0.019074
0.048066,-0.11063,-0.0077821,-0.041047,0.0096132,0.01236,0.059358,0.0016785
0.056611,-0.11063,-0.002594,-0.051728,0.023346,0.023957,0.065461,-0.014191
0.056611,-0.11429,-0.010224,-0.060883,0.033417,0.0206,0.034943,-0.049897
0.051423,-0.10086,-0.02884,-0.048676,0.0383,0.0013733,0.005951,-0.031281
0.010834,-0.076753,-0.027619,-0.04654,0.053559,-0.013581,0.0041199,-0.019074
-0.027619,-0.083772,-0.015717,-0.050813,0.065766,-0.018158,0.016022,0.0053407
-0.023346,-0.068513,-0.053864,-0.062715,0.04593,-0.010834,0.026093,0.031281
-0.033417,-0.065766,-0.065156,-0.075227,0.026703,0.0013733,0.016632,0.040131
-0.064546,-0.028534,-0.098726,-0.10513,0.016022,0.02121,0.053254,0.041047
-0.098116,0.0071717,-0.067903,-0.084688,-0.0050355,0.026093,0.082856,0.005951
-0.12741,0.042267,-0.10025,-0.086824,-0.014801,0.024567,0.073701,0.0047303
-0.15152,0.070039,-0.13352,-0.11673,-0.018158,0.021515,0.070039,0.027924
-0.15366,0.076753,-0.097505,-0.11276,-0.033417,0.0206,0.056611,0.069734
-0.14664,0.074617,-0.092927,-0.1033,-0.044404,0.015106,0.051118,0.08072
-0.11337,0.075532,-0.059968,-0.10086,-0.050507,0.005951,0.031281,0.077974
-0.061799,-0.0028992,-0.044404,-0.074922,-0.03769,0.02884,-0.0068666,0.095979
-0.013581,-0.083772,-0.036774,-0.065156,-0.01236,0.039216,0.017853,0.068208
0.033112,-0.1268,-0.016632,-0.046845,0.011749,0.044709,0.023651,0.053864
0.077668,-0.14054,-0.010529,-0.052644,0.031891,0.011139,-0.033722,0.017853
0.077668,-0.12985,-0.012665,-0.030365,0.04715,-0.034028,-0.056916,-0.041352
0.068513,-0.11551,-0.029145,-0.041352,0.059358,-0.041657,-0.064546,-0.077363
0.059358,-0.11734,-0.022736,-0.053254,0.059052,-0.024262,-0.047456,-0.11124
0.045624,-0.10483,-0.03006,-0.056611,0.049897,0.0068666,-0.023651,-0.11307
0.013275,-0.063935,-0.059052,-0.073091,0.047761,-0.00015259,0.0010681,-0.061494
0.01297,-0.040742,-0.073396,-0.082856,0.041962,-0.012665,0.012665,-0.015717
-0.018769,-0.00076295,-0.094453,-0.103,0.02121,-0.0056458,0.025177,0.00076295
-0.052033,0.039521,-0.099641,-0.10788,0.0038148,-0.00015259,0.01297,-0.028229
-0.053864,0.023651,-0.096895,-0.091096,-0.02884,0.0041199,0.013581,-0.0086976
-0.093538,0.060578,-0.12131,-0.11856,-0.037079,0.020294,0.027314,0.02182
-0.092317,0.051728,-0.083162,-0.10971,-0.030671,0.020905,0.029145,0.046235
-0.103,0.039216,-0.093538,-0.099031,-0.037079,0.032197,0.034028,0.038911
-0.086213,-0.0096132,-0.049287,-0.087129,-0.039521,0.037385,0.035859,0.030365
-0.058137,-0.036774,-0.041047,-0.064851,-0.032502,0.016938,0.016938,0.022736
-0.018158,-0.065766,-0.042878,-0.066682,0.0028992,-0.00076295,0.011444,0.0096132
0.049592,-0.10758,-0.031586,-0.069123,0.017548,0.0032044,-0.0044251,0.017853
0.047761,-0.13138,-0.029755,-0.037079,0.02884,0.014191,0.0077821,0.039826
0.034333,-0.089876,0.017853,-0.034638,0.059663,0.010529,0.002594,0.083467
0.02121,-0.15152,0.041962,-0.036469,0.075837,0.0032044,0.0013733,0.083467
0.0071717,-0.11612,-0.033112,-0.052338,0.073396,0.0065614,0.0077821,0.050202
-0.00076295,-0.05478,-0.039216,-0.056916,0.056001,0.0038148,-0.0056458,-0.012055
-0.022736,-0.01297,-0.058442,-0.073091,0.03769,-0.00076295,0.0065614,-0.042573
-0.057527,-0.016022,-0.090791,-0.066987,0.034028,-0.0086976,0.0086976,-0.066682
-0.08835,0.037079,-0.11887,-0.095369,0.019684,-0.0071717,0.00076295,-0.079805
-0.092317,0.047761,-0.12131,-0.10361,-0.0019837,0.0099184,0.023041,-0.010834
-0.081331,0.04593,-0.11246,-0.13046,-0.029145,0.015412,0.041352,0.019074
-0.078279,0.060578,-0.099031,-0.10452,-0.04654,0.016327,0.024872,0.035554
-0.082246,0.052033,-0.094148,-0.10788,-0.041657,0.0022889,-0.00015259,0.026093
-0.065156,0.019989,-0.078889,-0.084993,-0.052949,0.010529,-0.0019837,-0.00015259
-0.040742,-0.024567,-0.035554,-0.069429,-0.035859,0.013886,0.025788,0.0086976
-0.025788,-0.052338,-0.013886,-0.079194,-0.0065614,0.0053407,0.0090028,0.027314
0.012055,-0.095979,-0.023651,-0.051728,0.0056458,0.019989,0.017548,0.041047
0.037385,-0.11948,-0.019989,-0.05417,0.0206,0.0083925,0.02945,0.053254
0.049287,-0.13565,0.00076295,-0.052644,0.039521,0.01297,0.019379,0.029145
0.041962,-0.1265,-0.0074769,-0.043183,0.046845,0.022431,0.017243,0.002594
0.051728,-0.11215,-0.014496,-0.036469,0.055695,0.009308,-0.0047303,-0.025788
0.057221,-0.098726,-0.028229,-0.042573,0.059968,0.010529,-0.009308,-0.049287
0.035248,-0.067597,-0.066682,-0.058747,0.052338,0.02121,-0.026703,-0.092927
-0.0086976,-0.032502,-0.081331,-0.077668,0.053864,0.030365,-0.0086976,-0.077668
-0.062104,0.010224,-0.0972,-0.1146,0.036164,0.015106,0.016938,-0.045624
-0.099641,0.031891,-0.10269,-0.10788,0.0035096,0.0071717,0.02182,-0.0056458
-0.11856,0.06363,-0.10422,-0.10636,-0.035859,0.019379,0.02121,0.037995
-0.1442,0.069429,-0.11917,-0.09781,-0.047456,0.02121,0.034333,0.10758
-0.12772,0.050507,-0.088045,-0.11917,-0.030976,-0.0041199,0.015106,0.1384
-0.11002,0.035554,-0.089265,-0.10239,-0.036774,-0.015412,-0.0028992,0.14389
-0.077058,0.013886,-0.072175,-0.08957,-0.029145,-0.010834,0.0080873,0.13901
-0.042878,-0.017548,-0.039826,-0.072786,-0.020294,0.023957,0.044099,0.12253
-0.035554,-0.059358,-0.021515,-0.082856,0.00045777,0.040131,0.044404,0.064546
0.00045777,-0.10575,0.0019837,-0.064546,-0.0050355,0.024567,0.03006,0.017853
0.023957,-0.12772,-0.0038148,-0.048676,0.0047303,0.026398,0.03769,-0.013581
0.016022,-0.11032,-0.0080873,-0.0383,0.032197,0.017243,0.02121,-0.033417
0.037385,-0.11612,-0.010529,-0.044709,0.035859,0.032502,0.014191,-0.0383
0.052338,-0.11551,-0.027924,-0.032502,0.041352,0.024567,-0.0019837,-0.056001
0.049592,-0.10636,-0.052949,-0.048981,0.052033,0.0028992,-0.025177,-0.098116
0.03006,-0.040742,-0.086824,-0.063325,0.062104,-0.005951,-0.035248,-0.1033
0.014801,-0.005951,-0.11276,-0.069123,0.045014,-0.009308,-0.035554,-0.07187
-0.0206,0.0022889,-0.049897,-0.07126,0.034333,-0.023651,-0.029755,-0.059052
-0.056916,0.037995,-0.10269,-0.086824,0.033417,-0.028229,-0.027008,-0.033417
-0.035248,0.055085,-0.10269,-0.12497,0.0035096,-0.0074769,0.0068666,0.0077821
-0.053254,0.037995,-0.098421,-0.12558,-0.030671,0.010224,0.053559,0.063325
-0.065766,0.036164,-0.075227,-0.11582,-0.039826,0.024872,0.065766,0.089876
-0.066072,0.030365,-0.081331,-0.10483,-0.039521,0.026703,0.053864,0.059358
-0.051728,-0.03769,-0.029145,-0.088655,-0.033112,0.020294,0.045319,0.058442
-0.04715,-0.038605,-0.05478,-0.069429,-0.023651,0.012055,0.040131,0.031586
-0.044404,-0.05417,-0.040131,-0.045319,-0.0047303,0.005951,0.01297,-0.026398
-0.034333,-0.13199,0.027619,-0.035248,0.011749,0.0050355,-0.012665,-0.0080873
-0.049287,-0.121,-0.005951,-0.044709,0.04593,0.0041199,-0.011444,0.018769
-0.038605,-0.103,-0.026093,-0.056306,0.051118,0.010529,0.013581,0.03006
-0.030365,-0.08835,-0.0206,-0.065461,0.039826,0.022431,0.043488,0.015106
-0.015717,-0.074922,-0.033112,-0.058442,0.046845,0.026398,0.022126,0.014191
0.002594,-0.058747,-0.045014,-0.058747,0.040436,0.037385,0.009308,0.032197
-0.0068666,-0.030671,-0.074006,-0.073396,0.029145,0.02121,-0.0032044,-0.015717
-0.02945,0.0032044,-0.10239,-0.089265,0.017548,0.0019837,-0.0047303,-0.030365
-0.040742,0.027314,-0.10544,-0.098726,0.0035096,0.0083925,0.005951,0.0032044
-0.026398,0.028229,-0.10941,-0.103,-0.011444,0.0044251,0.010834,0.023041
-0.053864,0.038605,-0.1088,-0.10269,-0.015412,-0.0074769,-0.00015259,0.032807
-0.065766,0.044404,-0.099031,-0.10239,-0.029145,0.0047303,0.0071717,0.051118
-0.072175,0.031891,-0.08835,-0.10391,-0.044404,0.0099184,0.026093,0.059968
-0.055085,0.016632,-0.090181,-0.098421,-0.038605,0.0077821,0.022126,0.055085
-0.029145,-0.010834,-0.045014,-0.069734,-0.029145,0.0099184,0.034028,0.076143
-0.010529,-0.06424,-0.029145,-0.070344,-0.0086976,0.010834,0.032197,0.053864
0.017243,-0.11582,0.02182,-0.049592,0.014801,0.01297,0.017548,0.016022
0.034333,-0.16831,0.014801,-0.037385,0.027008,0.0083925,0.019684,-0.0019837
0.032197,-0.12345,-0.02182,-0.05417,0.043183,0.0032044,0.019684,-0.037385
0.03769,-0.11368,-0.020905,-0.041657,0.044404,0.025483,0.023651,-0.042878
0.036164,-0.103,-0.025483,-0.047761,0.042267,0.027008,0.013886,-0.037385
0.036774,-0.078889,-0.035554,-0.06302,0.048371,0.0065614,-0.018769,-0.074006
0.0096132,-0.051423,-0.058137,-0.072175,0.041962,0.002594,-0.02884,-0.083467
-0.0044251,-0.031891,-0.0795,-0.075532,0.031586,0.00076295,-0.035248,-0.083467
-0.0065614,0.00045777,-0.121,-0.08896,0.026703,-0.0086976,-0.016938,-0.059663
-0.033112,0.019989,-0.077974,-0.077363,0.011139,-0.011749,-0.015412,-0.029755
-0.065766,0.034028,-0.085908,-0.073091,0.013886,-0.025177,-0.033722,-0.0065614
-0.10971,0.069123,-0.11124,-0.10697,0.0086976,-0.023041,-0.024262,0.019074
-0.13413,0.069734,-0.088045,-0.1146,-0.017548,-0.019684,-0.0071717,0.054475
-0.12375,0.057527,-0.096284,-0.11246,-0.037079,-0.0041199,0.026703,0.10056
-0.11368,0.02182,-0.06424,-0.099336,-0.055085,0.037079,0.062409,0.1149
-0.072175,-0.025483,-0.04654,-0.08896,-0.033417,0.044099,0.057527,0.09659
-0.02884,-0.060578,-0.029755,-0.061189,-0.0083925,0.059052,0.067597,0.086824
0.0010681,-0.083467,-0.0044251,-0.049592,-0.0044251,0.044404,0.042878,0.074311
0.035554,-0.13535,-0.026398,-0.032807,0.025483,0.019074,-0.0032044,0.041962
0.045014,-0.14023,-0.0022889,-0.032502,0.045014,0.0071717,0.0028992,0.0019837
0.024872,-0.10208,-0.016327,-0.042878,0.068513,-0.0010681,-0.0062562,-0.013581
0.0068666,-0.093843,-0.040131,-0.073091,0.071565,0.015412,-0.011444,-0.0062562
0.01297,-0.10239,-0.031586,-0.065766,0.045014,0.025483,-0.0096132,-0.0028992
-0.0044251,-0.07187,-0.049897,-0.074617,0.044099,0.009308,-0.0019837,-0.026703
-0.032502,-0.032807,-0.091402,-0.098421,0.034943,0.0068666,0.056611,-0.039216
-0.041352,0.032502,-0.083162,-0.11185,-0.0047303,0.027314,0.075837,-0.010834
-0.054475,0.043488,-0.085298,-0.08835,-0.034333,0.022126,0.063325,0.02945
-0.08011,0.067292,-0.12375,-0.10269,-0.037079,0.01297,0.04715,0.013275
-0.085298,0.077974,-0.12894,-0.10056,-0.024262,0.0077821,0.023651,0.0016785
-0.066987,0.038605,-0.093233,-0.082246,-0.034333,0.014801,0.077363,0.00045777
-0.069429,0.016327,-0.072786,-0.087739,-0.019684,-0.0090028,-0.017243,-0.00045777
-0.049592,-0.02945,-0.030976,-0.093538,-0.0047303,-0.034333,-0.28794,0.012055
-0.016327,-0.052644,-0.035859,-0.083162,-0.015412,-0.023651,-0.12863,-0.0032044
0.002594,-0.071565,-0.02182,-0.048981,-0.0010681,-0.0010681,0.049897,0.0016785
0.0038148,-0.086213,-0.010834,-0.048371,0.023957,0.010834,0.049592,0.019989
0.02121,-0.10422,-0.014191,-0.066377,0.043793,0.009308,0.036164,0.024262
0.03769,-0.103,-0.01297,-0.060578,0.042878,0.0086976,0.04654,0.021515
0.057527,-0.10483,-0.034943,-0.06424,0.029755,0.018158,0.032197,0.0056458
0.051728,-0.11032,-0.03006,-0.052644,0.045624,0.02121,0.027619,0.0035096
0.019684,-0.0795,-0.02182,-0.049592,0.046845,0.015412,0.018769,-0.0035096
-0.025788,-0.036469,-0.065766,-0.056306,0.042878,0.0028992,0.019379,-0.034638
-0.051423,-0.0035096,-0.099336,-0.08957,0.036164,0.010529,0.029145,-0.042878
-0.077363,0.025788,-0.103,-0.10697,0.010834,0.0065614,0.027314,-0.019074
-0.10819,0.052033,-0.10849,-0.11307,-0.012665,-0.0016785,0.020905,0.0013733
-0.10147,0.048371,-0.103,-0.090486,-0.014191,0.0080873,0.016938,0.030976
-0.095369,0.027314,-0.08957,-0.0972,-0.027619,0.016938,0.013886,0.046235
-0.083772,0.022736,-0.057832,-0.10666,-0.035859,0.016327,0.0047303,0.053559
-0.091096,0.019989,-0.077363,-0.092927,-0.035248,0.005951,0.0096132,0.082246
-0.060883,-0.0206,-0.058137,-0.057527,-0.029755,-0.0013733,0.026093,0.085908
-0.057832,-0.021515,-0.053864,-0.082246,-0.01297,0.0010681,0.0050355,0.069123
-0.019684,-0.077974,-0.019074,-0.049592,0.00045777,0.02884,0.017548,0.059052
0.0074769,-0.09781,0.00015259,-0.028534,0.017548,0.031281,0.037995,0.060578
0.019989,-0.087434,-0.018769,-0.039216,0.041657,0.015106,0.017548,0.015412
0.033417,-0.103,-0.01297,-0.039521,0.055085,0.0071717,0.0035096,-0.038911
0.053559,-0.1265,-0.01297,-0.057221,0.065156,0.0090028,0.0041199,0.0032044
0.060578,-0.121,-0.027619,-0.082856,0.065461,0.0019837,-0.0071717,-0.019379
0.032807,-0.092317,-0.029145,-0.061494,0.040436,0.0086976,-0.014191,-0.074006
0.0047303,-0.047456,-0.06424,-0.066682,0.029145,0.010224,0.0028992,-0.072786
-0.014496,-0.0065614,-0.12253,-0.098421,0.024262,-0.0056458,-0.0028992,-0.065461
-0.044709,0.032197,-0.15122,-0.10941,0.0016785,0.00045777,-0.0032044,-0.067597
-0.070954,0.044404,-0.082551,-0.10117,-0.022126,0.012665,0.012055,-0.063935
-0.10849,0.066682,-0.10361,-0.11124,-0.024567,0.0044251,0.0096132,-0.061494
-0.11154,0.047456,-0.0972,-0.092927,-0.035248,0.002594,-0.0053407,-0.0071717
-0.0972,0.055695,-0.091096,-0.10575,-0.041047,0.005951,0.0016785,0.068513
-0.081331,0.021515,-0.057832,-0.090791,-0.032197,0.014191,0.0074769,0.11795
-0.046845,-0.053559,-0.017853,-0.078584,-0.022431,0.018463,0.032197,0.12894
-0.033112,-0.10147,-0.029145,-0.059052,-0.0013733,0.016632,0.059663,0.12528
-0.023651,-0.090791,-0.0383,-0.042878,0.014801,0.02945,0.047456,0.066682
0.012665,-0.10361,0.005951,-0.040742,0.030976,0.0383,0.041962,0.053864
0.032807,-0.12467,-0.010834,-0.051118,0.041352,0.034028,0.039826,0.036774
0.052949,-0.1088,-0.010834,-0.034638,0.047761,0.026703,0.020294,-0.019684
0.061799,-0.1146,-0.016022,-0.043183,0.051728,0.0071717,-0.010224,-0.044404
0.048981,-0.086824,-0.05417,-0.058442,0.056001,-0.009308,-0.033417,-0.065766
0.005951,-0.028229,-0.082856,-0.081636,0.045014,0.0038148,-0.0080873,-0.060578
-0.018463,-0.032197,-0.090181,-0.095064,0.031891,0.0038148,0.005951,-0.045319
-0.035859,0.014191,-0.0972,-0.10666,0.017853,0.0068666,0.005951,-0.023346
-0.066987,0.055695,-0.11978,-0.10849,-0.00045777,0.0062562,0.024262,-0.036469
-0.06302,0.066682,-0.098726,-0.11276,-0.02121,0.00015259,0.020905,-0.035554
-0.068208,0.013886,-0.031586,-0.083162,-0.030671,0.010224,-0.009308,0.027924
-0.048676,-0.027924,-0.08957,-0.068818,-0.033112,0.0068666,-0.0044251,0.063935
-0.069734,0.040742,-0.1088,-0.10727,-0.019379,-0.0035096,-0.019379,0.07126
-0.063325,0.018463,-0.058442,-0.08072,-0.027619,0.002594,-0.035554,0.068208
-0.043488,-0.039826,-0.046235,-0.067292,-0.024567,0.013886,-0.037385,0.076753
-0.015412,-0.072175,-0.019684,-0.056916,-0.011444,0.0071717,0.0047303,0.050507
0.009308,-0.093843,-0.0038148,-0.043183,0.0035096,0.023041,0.07187,0.023346
0.024262,-0.09781,-0.0077821,-0.045319,0.030365,0.02884,0.052338,0.010834
0.0090028,-0.099336,-0.013581,-0.067292,0.044404,0.026093,0.02121,-0.023346
0.00045777,-0.087739,-0.031586,-0.059663,0.057527,0.016632,0.013886,-0.064546
0.002594,-0.099336,-0.034028,-0.058747,0.057527,0.013275,-0.0032044,-0.049287
-0.0065614,-0.076143,-0.035859,-0.051728,0.050507,0.016632,-0.012055,-0.023651
-0.041962,-0.040742,-0.066987,-0.081025,0.039216,0.018463,-0.0053407,-0.022736
-0.066072,-0.002594,-0.090181,-0.089265,0.015717,0.012055,0.019074,-0.0056458
-0.093843,0.031586,-0.10758,-0.11521,0.0038148,0.0053407,0.023651,0.0071717
-0.095979,0.052644,-0.10422,-0.10239,-0.0047303,-0.0019837,0.0090028,0.040131
-0.087434,0.056001,-0.10147,-0.10361,-0.013581,0.0019837,0.023651,0.084382
-0.068818,0.051118,-0.080415,-0.11643,-0.026398,0.00076295,0.0086976,0.056306
-0.058137,0.017548,-0.063325,-0.085908,-0.049287,0.015106,0.02121,0.06302
-0.044404,0.0016785,-0.068818,-0.079805,-0.030671,0.0077821,0.049592,0.079194
-0.013581,-0.023346,-0.053864,-0.073396,-0.023346,0.013275,0.03769,0.033722
0.028229,-0.047456,-0.039216,-0.061494,-0.011444,0.028534,0.013581,0.031891
0.04715,-0.09659,-0.030671,-0.048981,0.010529,0.018769,-0.0010681,0.029755
0.069429,-0.11093,-0.012055,-0.066377,0.02182,-0.0019837,-0.0096132,-0.014496
0.04654,-0.13016,-0.022431,-0.059052,0.037995,0.0032044,-0.028534,-0.058137
0.031891,-0.12436,-0.0038148,-0.0383,0.053864,0.0083925,-0.036774,-0.068208
0.00076295,-0.10178,-0.014191,-0.05539,0.047456,0.00045777,-0.00015259,-0.07126
-0.025483,-0.084688,-0.035859,-0.052949,0.04593,-0.0041199,0.023651,-0.056611
-0.050507,-0.052644,-0.07187,-0.075532,0.030365,0.016632,0.036164,-0.012665
-0.065461,-0.028534,-0.11887,-0.098726,0.013275,0.0090028,0.02182,0.016022
-0.042573,0.0206,-0.086824,-0.066377,0.017853,-0.013275,-0.024567,0.0013733
-0.051118,0.011139,-0.11063,-0.094759,0.024262,-0.017243,-0.026398,-0.034638
-0.073701,0.031586,-0.078279,-0.10483,0.0035096,-0.019684,-0.033417,-0.036774
-0.081941,0.041962,-0.08011,-0.10239,-0.045319,0.020294,0.011749,0.053559
-0.092317,0.032502,-0.090181,-0.097505,-0.047761,0.014801,0.028229,0.088655
-0.10849,0.04593,-0.10056,-0.10086,-0.019379,-0.005951,0.034028,0.11887
-0.089876,-0.00045777,-0.016327,-0.062409,-0.0083925,0.0047303,0.057832,0.13046
-0.047456,-0.041962,-0.057832,-0.05417,-0.00045777,0.020294,0.034333,0.10239
-0.012665,-0.038911,-0.018158,-0.07248,0.012055,0.023041,0.030976,0.069734
0.015717,-0.08072,-0.0056458,-0.041047,0.002594,0.019074,0.029145,0.022736
0.018769,-0.10239,-0.01297,-0.064851,0.019379,0.015106,-0.0032044,-0.023346
0.033417,-0.093843,-0.0022889,-0.060578,0.036164,0.017853,0.015412,-0.033112
0.04654,-0.11856,-0.03006,-0.041047,0.042878,0.037995,0.04654,-0.025788
0.029755,-0.10147,-0.051728,-0.056611,0.049592,0.045319,0.055085,-0.047761
0.041962,-0.090181,-0.058137,-0.059052,0.030365,0.043183,0.050507,-0.057527
0.032197,-0.056306,-0.07248,-0.051423,0.024872,0.022736,0.024262,-0.053864
-0.016327,-0.025483,-0.078889,-0.07248,0.035859,-0.0019837,0.011444,-0.068818
-0.041352,-0.0206,-0.072175,-0.11307,0.02945,0.0044251,0.012665,-0.046845
-0.051118,-0.022736,-0.090181,-0.10697,0.0053407,0.0086976,0.04593,0.0047303
-0.059663,0.015106,-0.10727,-0.11124,-0.017243,-0.0010681,-0.0035096,0.034943
-0.070649,0.05539,-0.11124,-0.11124,-0.025177,-0.023651,-0.26108,0.059968
-0.083162,0.052338,-0.084382,-0.090486,-0.028534,-0.031281,-0.18509,0.084077
-0.099947,0.037995,-0.077058,-0.091096,-0.032502,-0.0071717,0.026093,0.082856
-0.087739,0.035248,-0.074006,-0.094453,-0.033417,0.0099184,0.041962,0.074006
-0.074922,0.055085,-0.034028,-0.061189,-0.025177,0.0019837,0.037079,0.042878
-0.040742,-0.043793,-0.022736,-0.059663,-0.0041199,0.02121,0.057221,0.029145
0.0016785,-0.10575,-0.017853,-0.0383,0.011139,0.032502,0.041657,-0.022126
0.019074,-0.12161,-0.021515,-0.046235,0.033417,0.022736,0.010529,-0.098116
0.01297,-0.1265,-0.0013733,-0.077058,0.04715,0.012665,-0.0013733,-0.14054
0.0077821,-0.11215,-0.012665,-0.061799,0.046845,0.016022,0.005951,-0.095369
0.011139,-0.11856,-0.019074,-0.052644,0.031891,0.027924,0.018158,-0.050507
0.02884,-0.098726,-0.038605,-0.062715,0.030365,0.023957,0.02884,-0.02121
0.012665,-0.072786,-0.065156,-0.063325,0.035554,0.010834,0.027619,0.011139
0.00076295,-0.018158,-0.10483,-0.079194,0.032197,-0.0071717,0.0047303,0.034943
-0.052033,0.037385,-0.14054,-0.10544,0.022736,-0.015717,-0.009308,0.041657
-0.083162,0.043793,-0.12314,-0.10391,0.010834,-0.010834,0.014801,0.073701
-0.099031,0.054475,-0.1088,-0.1033,-0.0068666,-0.0053407,0.027314,0.13535
-0.093538,0.064546,-0.056001,-0.1088,-0.017243,-0.010834,0.026093,0.1445
-0.10849,0.037995,-0.074311,-0.11582,-0.034943,0.0206,0.059052,0.14267
-0.076143,0.022431,-0.068208,-0.096284,-0.050813,0.043183,0.069734,0.14298
-0.027314,-0.026398,-0.026703,-0.056916,-0.041657,0.03006,0.055085,0.087434
-0.013275,-0.080415,-0.033112,-0.043183,-0.013275,0.016327,0.021515,0.013581
0.011444,-0.067597,-0.026093,-0.058137,0.02945,0.0062562,-0.025177,-0.041352
0.041657,-0.10666,-0.0083925,-0.056916,0.032197,0.0077821,-0.016938,-0.048981
0.052338,-0.12345,-0.0080873,-0.06302,0.029145,0.0047303,-0.015106,-0.065156
0.06302,-0.1323,-0.016632,-0.04715,0.045624,0.0065614,-0.0062562,-0.084077
0.041352,-0.10178,-0.015412,-0.050507,0.058137,0.013275,-0.014801,-0.099031
0.046235,-0.10239,-0.020905,-0.045624,0.063325,0.022126,-0.0080873,-0.083162
0.015717,-0.076753,-0.052338,-0.068513,0.045319,0.010834,-0.01236,-0.077974
-0.0022889,-0.050813,-0.084993,-0.082246,0.042878,-0.0068666,-0.0074769,-0.049592
-0.0090028,-0.0028992,-0.084688,-0.081636,0.022126,-0.011444,-0.0041199,-0.036469
-0.039521,0.040131,-0.10697,-0.095064,-0.0032044,-0.01297,-0.00015259,-0.010224
-0.074006,0.058442,-0.12894,-0.11795,-0.014191,-0.012665,-0.00015259,0.011749
-0.10513,0.059358,-0.12253,-0.10178,-0.032807,-0.010834,0.0099184,0.051728
-0.10819,0.041352,-0.098421,-0.08835,-0.051728,0.0077821,0.032807,0.080415
-0.099641,0.031281,-0.075837,-0.10147,-0.042878,0.009308,0.011139,0.074617
-0.099947,0.021515,-0.069123,-0.10056,-0.034638,0.016938,0.028229,0.09659
-0.054475,-0.0206,-0.0383,-0.06363,-0.028534,0.033417,0.043793,0.1146
-0.029145,-0.074311,0.013886,-0.050202,-0.0010681,0.0032044,-0.00045777,0.064546
-0.020294,-0.064851,-0.024262,-0.05417,0.023957,-0.012055,-0.015412,0.023957
0.002594,-0.078584,0.0096132,-0.045319,0.041352,0.0022889,-0.0010681,-0.0019837
0.019989,-0.12955,-0.011749,-0.046235,0.041047,0.0099184,0.018769,-0.011444
0.016022,-0.121,-0.029145,-0.04654,0.040436,0.012665,0.026703,-0.019074
0.023041,-0.096895,-0.032502,-0.070649,0.050202,0.010529,0.0096132,-0.058137
0.012665,-0.094148,-0.045624,-0.058747,0.044404,0.0206,0.013275,-0.069123
0.0047303,-0.048981,-0.066987,-0.066682,0.033112,0.024567,0.013886,-0.052644
-0.0019837,-0.03006,-0.077974,-0.083467,0.016632,0.0099184,0.009308,-0.038911
-0.023041,-0.016327,-0.08072,-0.086519,-0.0047303,0.0032044,-0.0083925,-0.023041
-0.023651,0.0047303,-0.086519,-0.083772,0.0032044,0.005951,-0.0050355,0.012055
-0.051728,0.033722,-0.10422,-0.10666,-0.0028992,0.00015259,-0.0022889,0.030365
-0.079805,0.062104,-0.12284,-0.11185,-0.023346,0.0032044,0.0086976,0.017243
-0.081941,0.040131,-0.11093,-0.10971,-0.034943,0.0022889,-0.0035096,0.02182
-0.08835,0.04593,-0.084077,-0.098726,-0.043793,0.0032044,-0.002594,0.073396
-0.069429,-0.005951,-0.036469,-0.070954,-0.027314,0.0086976,0.011749,0.086824
-0.046845,-0.018158,-0.038605,-0.059663,-0.0083925,0.017853,0.017853,0.075532
-0.027008,-0.05539,-0.027619,-0.093538,0.0074769,0.025483,0.024262,0.059358
-0.017548,-0.08957,-0.011749,-0.081636,0.0010681,0.027314,0.035859,0.052033
-0.024567,-0.099947,-0.026398,-0.043183,0.0038148,0.035554,0.046235,0.032197
-0.0019837,-0.11246,-0.010834,-0.036774,0.024872,0.028229,0.035248,0.0032044
0.029145,-0.10269,-0.028229,-0.032807,0.046235,0.018158,0.028229,0.0080873
0.023957,-0.10666,-0.016938,-0.044404,0.076448,-0.0032044,-0.012055,-0.025483
0.013275,-0.10544,-0.0022889,-0.06424,0.069429,-0.013581,-0.016938,-0.059052
0.0028992,-0.081636,-0.052644,-0.068513,0.042267,0.012665,-0.010834,-0.039521
-0.031891,-0.031891,-0.12863,-0.082856,0.040131,-0.00015259,-0.028534,-0.061799
-0.056916,0.022126,-0.1088,-0.10452,0.020905,-0.0080873,-0.022736,-0.0383
-0.085908,0.057832,-0.11826,-0.11276,-0.01297,0.0071717,-0.0050355,0.0068666
-0.074617,0.072175,-0.103,-0.1149,-0.028534,0.019989,0.032197,0.041657
-0.081331,0.059968,-0.084688,-0.088655,-0.045624,0.01297,0.023041,0.051728
-0.081025,0.043488,-0.098726,-0.10086,-0.045319,0.014191,-0.0047303,0.052949
-0.04593,0.025483,-0.10422,-0.099947,-0.036774,-0.00076295,0.016938,0.072786
-0.024872,-0.030976,-0.059968,-0.082856,-0.016938,-0.015412,0.0096132,0.041047
-0.018158,-0.045319,-0.025788,-0.066682,-0.010834,-0.00015259,0.024262,0.025788
-0.020905,-0.050813,-0.01297,-0.063325,-0.0056458,0.0068666,0.024872,0.019989
0.025177,-0.12406,0.030976,-0.044709,0.027924,0.014496,0.019989,0.0010681
0.052949,-0.16587,0.033417,-0.028534,0.04715,0.026703,0.02945,-0.016632
0.052949,-0.13565,-0.036774,-0.048371,0.063935,0.020294,0.017243,-0.046845
0.067292,-0.096895,-0.062409,-0.076448,0.055695,0.022126,0.0096132,-0.063935
0.051728,-0.078584,-0.047761,-0.070954,0.037995,0.024872,0.017243,-0.039826
0.028229,-0.076753,-0.043183,-0.076448,0.032807,0.005951,-0.01297,-0.069429
-0.0071717,-0.025483,-0.067903,-0.083467,0.024872,-0.0013733,-0.03769,-0.086824
-0.042878,-0.00015259,-0.092927,-0.075532,0.013275,0.0071717,-0.022431,-0.037385
-0.079194,0.020294,-0.085908,-0.10086,0.012665,-0.0022889,-0.022126,-0.0062562
-0.103,0.051118,-0.1146,-0.10941,-0.0022889,-0.010834,-0.016632,0.041352
-0.10971,0.045624,-0.095369,-0.10452,-0.031281,-0.0016785,-0.0056458,0.07126
-0.10391,0.033417,-0.084382,-0.090486,-0.036774,-0.0038148,0.01297,0.099641
-0.095369,0.040436,-0.098421,-0.085603,-0.035859,0.00045777,0.023041,0.1326
-0.079194,0.025788,-0.10269,-0.086519,-0.033417,0.0071717,0.026703,0.12161
-0.050507,-0.041962,-0.036469,-0.05417,-0.023651,0.018463,0.039826,0.1091
-0.010834,-0.074617,0.022431,-0.037385,-0.0083925,0.023346,0.06363,0.068513
-0.0065614,-0.08011,-0.0053407,-0.051728,0.014801,0.022736,0.027314,0.0053407
-0.0035096,-0.08896,-0.013581,-0.042573,0.024262,0.0053407,-0.0035096,-0.011139
0.031281,-0.081331,-0.060273,-0.052949,0.052338,0.02884,0.027619,-0.0013733
0.046235,-0.068208,-0.035554,-0.0795,0.063325,0.037385,0.0068666,-0.054475
0.031281,-0.12161,0.009308,-0.059358,0.051118,0.0062562,-0.052949,-0.11124
0.011444,-0.11246,-0.014496,-0.057221,0.037385,-0.0056458,-0.042878,-0.091402
-0.018158,-0.055695,-0.066987,-0.070649,0.039216,-0.035859,-0.029145,-0.049897
-0.026703,-0.018158,-0.083467,-0.074311,0.02884,-0.011749,0.043488,-0.026398
-0.041962,0.014191,-0.095064,-0.12314,0.016632,0.017243,0.043793,-0.0032044
-0.081636,0.041657,-0.11887,-0.13474,-0.016938,0.027924,0.04715,0.03769
-0.059358,0.045319,-0.10452,-0.10513,-0.042878,0.0065614,0.037385,0.035248
-0.082246,0.046235,-0.11063,-0.10575,-0.041962,-0.012055,0.011139,0.031586
-0.083162,0.032197,-0.103,-0.087739,-0.031586,-0.015412,-0.011444,0.018769
-0.070039,0.031891,-0.092317,-0.096895,-0.018769,-0.014801,-0.011444,0.04715
-0.077058,-0.0019837,-0.050507,-0.092622,-0.020905,0.0068666,-0.00045777,0.042267
-0.058747,-0.059663,-0.024872,-0.061799,-0.031281,0.046235,0.020905,-0.033112
-0.037079,-0.093538,0.012665,-0.053254,-0.021515,0.036164,0.042267,-0.011139
0.017853,-0.13687,0.011444,-0.025483,0.011749,0.023957,0.019379,0.023957
0.033722,-0.1387,-0.022431,-0.019074,0.041047,0.015106,0.013581,0.035248
0.010834,-0.094148,-0.031586,-0.064851,0.075837,0.0028992,-0.0044251,0.00076295
0.010529,-0.078584,-0.026398,-0.053254,0.059358,0.0032044,0.0074769,-0.010529
0.019074,-0.038911,-0.0206,-0.048371,0.048066,-0.010834,0.0038148,-0.010834
-0.0010681,-0.052644,-0.052644,-0.056916,0.039826,0.009308,0.0096132,0.0013733
-0.02945,-0.059968,-0.063935,-0.073396,0.02945,0.019379,0.023957,-0.0068666
-0.047456,-0.023346,-0.090791,-0.087434,0.02182,0.0022889,0.011139,0.0050355
-0.065156,0.0047303,-0.097505,-0.0972,0.013886,0.0013733,0.0050355,0.030976
-0.065461,0.041352,-0.10483,-0.10147,-0.0090028,0.0065614,0.0013733,0.052949
-0.04654,0.044099,-0.10727,-0.10758,-0.02884,-0.011444,-0.023041,0.10239
-0.045624,0.035554,-0.099031,-0.10239,-0.040742,-0.013581,-0.030671,0.079805
-0.059052,0.042573,-0.087129,-0.099947,-0.040742,-0.0086976,-0.017548,0.05417
-0.034943,0.022126,-0.074922,-0.099336,-0.02884,-0.018158,0.0077821,0.048981
-0.0056458,-0.026703,-0.052338,-0.092622,-0.016938,0.0065614,0.031586,0.024872
-0.014801,-0.045624,-0.030976,-0.079194,-0.0047303,0.044099,0.034028,-0.0028992
-0.025483,-0.059968,-0.022431,-0.062409,-0.0013733,0.016022,0.037079,-0.028229
0.0056458,-0.10941,-0.0062562,-0.046845,0.012665,0.0206,0.016938,-0.022431
0.016632,-0.11673,-0.019074,-0.040742,0.029145,0.020294,0.02182,-0.030365
0.0074769,-0.11765,-0.016938,-0.050202,0.051118,0.0062562,0.019074,-0.061494
-0.002594,-0.10086,-0.042573,-0.058442,0.04715,0.028229,0.027314,-0.054475
0.015412,-0.11612,-0.037079,-0.043488,0.039216,0.042573,0.0383,-0.0019837
0.0086976,-0.084382,-0.039826,-0.040742,0.043488,0.021515,0.021515,-0.00015259
-0.037079,-0.036164,-0.049897,-0.079194,0.056001,0.010224,0.0071717,-0.024567
-0.064851,-0.005951,-0.081025,-0.0972,0.029145,0.02945,0.017853,-0.028229
-0.060578,0.049287,-0.13382,-0.1088,-0.00045777,0.010529,0.0099184,-0.058137
-0.062104,0.023957,-0.078584,-0.1088,-0.019074,0.00015259,-0.0074769,-0.045319
-0.052644,0.02182,-0.070344,-0.10788,-0.025788,-0.0028992,-0.002594,-0.022736
-0.057221,0.015717,-0.1033,-0.077668,-0.03769,0.0047303,0.0028992,0.02182
-0.060578,0.031281,-0.094453,-0.094453,-0.037385,-0.011444,-0.017243,0.076143
-0.043488,0.0083925,-0.058747,-0.081636,-0.030976,-0.02182,-0.025177,0.14023
-0.022126,-0.023651,-0.036774,-0.091707,-0.020294,-0.0086976,-0.023041,0.13718
-0.014801,-0.033417,-0.048981,-0.077058,-0.009308,0.0083925,0.034028,0.10361
-0.01236,-0.074311,-0.015412,-0.05417,0.0041199,0.019074,0.045319,0.070649
0.0053407,-0.10452,-0.016327,-0.041047,0.029145,0.015106,0.059663,0.013275
0.019989,-0.103,-0.0086976,-0.046235,0.046845,0.017853,0.049592,-0.033112
0.026703,-0.11429,-0.013886,-0.041047,0.048371,0.014191,0.048371,-0.048676
0.03769,-0.10941,-0.028534,-0.049287,0.049897,0.0065614,0.065156,-0.061189
0.029755,-0.092927,-0.038605,-0.050202,0.053559,-0.0013733,-0.14237,-0.061799
-0.012055,-0.05539,-0.068513,-0.072175,0.057832,-0.0041199,-0.2678,-0.066072
-0.031281,-0.022736,-0.0795,-0.099947,0.032197,0.0083925,-0.031891,-0.051728
-0.048981,0.019074,-0.10147,-0.10513,0.0080873,0.021515,0.055085,-0.024872
-0.060883,0.024567,-0.08011,-0.086519,-0.00015259,0.019074,0.055695,-0.0080873
-0.06363,0.037385,-0.10513,-0.0972,-0.016632,0.011444,0.053559,0.014191
-0.062715,0.053254,-0.11124,-0.11307,-0.036774,0.011139,0.045624,0.030976
-0.069429,0.048066,-0.086519,-0.094453,-0.045319,0.014191,0.034943,0.04715
-0.08957,0.036164,-0.0795,-0.092927,-0.044404,0.00015259,0.019379,0.06363
-0.068818,-0.014496,-0.043183,-0.073701,-0.027008,-0.014191,0.0010681,0.053254
-0.056916,-0.013581,-0.052338,-0.073396,-0.020905,-0.0074769,0.015412,0.065461
-0.047456,-0.058137,-0.01297,-0.082246,0.0038148,0.0019837,0.041962,0.075532
0.0038148,-0.093843,-0.032807,-0.050202,0.0071717,0.032197,0.058442,0.080415
0.034943,-0.12741,-0.055085,-0.042878,0.020905,0.026398,0.053559,0.043793
0.019379,-0.13535,0.011749,-0.035554,0.057832,-0.0041199,0.0038148,-0.058747
0.015106,-0.099641,-0.0028992,-0.068513,0.055695,0.0041199,-0.0090028,-0.10605
0.0096132,-0.098116,-0.029145,-0.068513,0.041047,0.015106,0.013275,-0.08896
0.0065614,-0.090486,-0.040742,-0.048371,0.036164,0.0099184,0.0028992,-0.056916
-0.039521,-0.035554,-0.074006,-0.0795,0.041962,0.0090028,0.0096132,-0.046845
-0.045014,-0.010834,-0.084077,-0.099641,0.029145,0.028229,0.017243,-0.013275
-0.052644,0.025788,-0.086519,-0.10086,0.015717,0.030976,0.014191,0.019074
-0.073091,0.047761,-0.098116,-0.10239,0.0053407,0.0071717,0.0013733,0.041047
-0.084077,0.027924,-0.11124,-0.086519,-0.024567,-0.0086976,0.011139,0.073396
-0.076143,0.032502,-0.10025,-0.10147,-0.034943,-0.011444,0.010834,0.08835
-0.074922,0.016327,-0.082551,-0.095064,-0.030976,-0.0074769,0.031281,0.103
-0.081025,0.035248,-0.074617,-0.10788,-0.023651,0.011444,0.030976,0.11826
-0.052949,0.019074,-0.052033,-0.084688,-0.017243,0.022126,0.024262,0.11582
-0.036469,-0.037385,-0.029145,-0.081331,-0.0074769,0.022736,0.014801,0.073396
0.0028992,-0.075837,-0.013886,-0.05539,0.0065614,0.023346,-0.014496,-0.00015259
0.02182,-0.098116,-0.018158,-0.0383,-0.0044251,0.032502,0.00045777,-0.031891
0.041962,-0.14054,0.0056458,-0.02945,0.021515,0.0022889,0.0071717,-0.048981
0.051423,-0.14633,0.0074769,-0.0383,0.045319,-0.015412,-0.010529,-0.078889
0.057221,-0.10605,-0.048066,-0.035248,0.050202,-0.009308,-0.034638,-0.083467
0.049592,-0.12467,-0.025788,-0.033112,0.059358,-0.0096132,-0.015412,-0.058747
0.041047,-0.088045,-0.054475,-0.044099,0.049592,-0.0016785,-0.0065614,-0.06363
0.017853,-0.029755,-0.07126,-0.093843,0.044404,-0.015106,-0.026398,-0.070649
-0.012665,0.0053407,-0.094148,-0.13596,0.025177,-0.0032044,-0.014191,-0.098421
-0.041047,0.032502,-0.11551,-0.1265,-0.014801,0.0044251,-0.0080873,-0.09781
-0.073701,0.041352,-0.10849,-0.099947,-0.033417,0.016938,0.0096132,-0.053559
-0.093538,0.058747,-0.10941,-0.10269,-0.0383,0.016938,0.037079,0.052033
-0.11032,0.040742,-0.092317,-0.1146,-0.037079,0.0083925,0.045319,0.094148
-0.1268,0.0383,-0.08896,-0.096284,-0.039216,0.0090028,0.057221,0.13626
-0.11826,0.030365,-0.074006,-0.08072,-0.028229,0.0010681,0.048371,0.14542
-0.10025,-0.0035096,-0.048066,-0.083467,-0.018463,0.009308,0.034333,0.12619
-0.091402,-0.016327,-0.043183,-0.061799,-0.0050355,0.024872,0.037079,0.10819
-0.035554,-0.070649,-0.017548,-0.067597,0.005951,0.042878,0.058442,0.09781
-0.0068666,-0.09659,-0.012055,-0.062409,0.025177,0.044709,0.044404,0.058442
0.0050355,-0.12222,0.00045777,-0.045624,0.032807,0.027008,0.024872,0.0013733
0.039216,-0.13596,0.0096132,-0.030365,0.045319,0.024262,0.026093,-0.0022889
0.041657,-0.11612,-0.023041,-0.050507,0.068513,0.03006,-0.0032044,-0.082246
0.047761,-0.086519,-0.031891,-0.072786,0.06302,0.0099184,-0.034638,-0.11063
0.031281,-0.068208,-0.056611,-0.048981,0.043488,0.010529,-0.019684,-0.085298
0.0096132,-0.033417,-0.11887,-0.083467,0.02884,0.00076295,-0.032502,-0.10636
-0.002594,0.0062562,-0.0972,-0.082246,0.016022,-0.0074769,-0.026703,-0.066682
-0.058137,0.058137,-0.12436,-0.10513,-0.0022889,-0.010224,-0.023346,0.0099184
-0.082246,0.058442,-0.10727,-0.08896,-0.017243,-0.027314,-0.017243,0.041657
-0.074922,-0.010529,-0.05417,-0.089876,-0.020294,-0.025788,-0.002594,0.056001
-0.057832,-0.039521,-0.061799,-0.0972,-0.018769,-0.014801,0.0019837,0.070039
-0.084382,0.024262,-0.10697,-0.092317,-0.014191,-0.013581,0.0099184,0.076753
-0.075837,0.022126,-0.07248,-0.078279,-0.024262,0.0086976,0.037079,0.070344
-0.041047,-0.00076295,-0.040742,-0.08835,-0.037385,0.03006,0.069734,0.059358
-0.010529,-0.058137,-0.026398,-0.080415,-0.013275,0.042573,0.085603,0.056611
0.053254,-0.099947,-0.00076295,-0.056611,-0.0010681,0.036164,0.054475,0.043793
0.095674,-0.12894,-0.0099184,-0.05417,0.023041,0.03006,0.0090028,-0.013581
0.12039,-0.15946,0.010834,-0.030671,0.040436,0.011444,-0.015717,-0.072786
0.095979,-0.14359,-0.010529,-0.044404,0.045014,0.0071717,-0.036774,-0.081331
0.046235,-0.10575,-0.031891,-0.048676,0.067597,-0.02121,-0.077058,-0.083162
-0.01236,-0.067903,-0.06424,-0.067597,0.065156,-0.034943,-0.085603,-0.077363
-0.059052,-0.015412,-0.08896,-0.087129,0.046845,-0.021515,-0.029755,-0.042878
-0.11734,0.023346,-0.082246,-0.071565,0.019684,-0.0047303,0.015412,-0.029145
-0.17411,0.051423,-0.10697,-0.092927,0.0041199,0.019379,0.017853,-0.0062562
-0.17227,0.069123,-0.11673,-0.10575,-0.0032044,0.016938,0.034943,0.0383
-0.18631,0.073091,-0.11063,-0.11917,-0.015717,-0.00076295,0.039216,0.043488
-0.18631,0.089265,-0.091402,-0.11551,-0.039826,0.00045777,0.043488,0.10849
-0.15457,0.061494,-0.099031,-0.11948,-0.062104,0.018769,0.045624,0.11551
-0.10025,0.019989,-0.090791,-0.095369,-0.046845,0.039521,0.070344,0.11704
-0.034638,-0.048981,-0.015717,-0.047456,-0.027314,0.041047,0.089876,0.1387
0.017243,-0.090791,-0.0065614,-0.067292,-0.012055,0.024872,0.049592,0.1146
0.048066,-0.099336,-0.0062562,-0.051728,0.0090028,0.018769,0.025788,0.053864
0.061799,-0.12497,-0.015717,-0.049287,0.014801,0.012055,0.009308,-0.0065614
0.073396,-0.14176,-0.0080873,-0.035248,0.026093,0.010224,-0.002594,-0.023651
0.082856,-0.13687,-0.0068666,-0.046235,0.045014,0.013886,-0.009308,-0.052644
0.076753,-0.12284,-0.026398,-0.050813,0.057832,0.009308,-0.027008,-0.095674
0.066072,-0.10239,-0.034028,-0.045319,0.067597,0.0065614,-0.016327,-0.11398
0.03769,-0.060883,-0.085298,-0.069123,0.06424,-0.0035096,-0.018158,-0.096895
-0.0071717,-0.0047303,-0.076753,-0.064546,0.044404,-0.0096132,-0.019684,-0.085908
-0.053254,0.014191,-0.096895,-0.08896,0.018158,-0.015717,-0.031586,-0.060883
-0.074922,0.064546,-0.12772,-0.11246,-0.0035096,-0.014191,-0.0019837,-0.011444
-0.082246,0.053864,-0.10269,-0.11795,-0.020905,0.0019837,0.019684,0.02945
-0.083467,0.044099,-0.097505,-0.1088,-0.024262,0.0041199,0.027314,0.064546
-0.086824,0.015412,-0.053864,-0.08835,-0.034333,0.016938,0.027924,0.092927
-0.084993,0.013275,-0.087129,-0.092317,-0.035859,0.028229,0.036774,0.11978
-0.056916,0.016327,-0.088655,-0.085908,-0.025177,0.0206,0.036164,0.095979
-0.028534,-0.042878,-0.02182,-0.06363,-0.023346,0.015412,0.033722,0.076448
-0.0090028,-0.088655,-0.025483,-0.085603,-0.0013733,0.011139,0.019989,0.049287
0.022126,-0.12161,-0.012665,-0.052644,0.0090028,0.016938,0.023651,0.014191
0.087434,-0.121,-0.0077821,-0.02884,0.023957,0.012055,-0.0056458,-0.022431
0.091402,-0.092622,-0.027619,-0.050202,0.056306,0.0053407,-0.011444,-0.072786
0.039826,-0.11032,-0.01236,-0.051728,0.065156,0.016938,0.002594,-0.099947
0.011749,-0.10422,-0.014191,-0.048981,0.052949,0.018463,0.0077821,-0.092317
0.0016785,-0.07187,-0.048066,-0.051728,0.045319,0.016022,0.015106,-0.051423
-0.024262,-0.032502,-0.062715,-0.066987,0.050507,0.015106,0.0056458,-0.027314
-0.063325,-0.01297,-0.076753,-0.08957,0.044404,-0.009308,-0.022431,-0.034943
-0.11002,0.027314,-0.10147,-0.10513,0.017548,-0.017853,-0.01297,0.0010681
-0.1268,0.051423,-0.11307,-0.11185,-0.014191,-0.0080873,0.013581,0.054475
-0.11032,0.058747,-0.10452,-0.093843,-0.02945,-0.0035096,0.032197,0.084382
-0.10117,0.040742,-0.081025,-0.11093,-0.02945,-0.0032044,0.016632,0.10178
-0.096895,0.039826,-0.092622,-0.11063,-0.041657,0.0053407,0.017853,0.11368
-0.088045,0.040131,-0.10117,-0.11398,-0.051423,0.018158,0.039521,0.11032
-0.069429,0.00015259,-0.069123,-0.095064,-0.041047,0.016327,0.048981,0.10666
-0.034638,-0.046235,-0.035554,-0.076448,-0.02945,0.015106,0.030976,0.067597
-0.014496,-0.088655,-0.016632,-0.055695,-0.0044251,0.020294,0.023651,0.032807
0.020294,-0.121,-0.0035096,-0.035554,0.016022,0.022126,0.033722,0.013581
0.027008,-0.076143,-0.0016785,-0.029145,0.023041,0.030976,0.017243,-0.029145
0.045624,-0.10666,0.018158,-0.034943,0.030365,0.02884,0.0077821,-0.058747
0.039216,-0.14298,0.020294,-0.033722,0.044404,0.027008,0.027008,-0.066072
0.050507,-0.12467,-0.048066,-0.038605,0.073396,0.014496,0.0090028,-0.088045
0.026093,-0.074311,-0.11673,-0.092927,0.088045,0.0047303,-0.010834,-0.1033
0.0074769,-0.041352,-0.066682,-0.08835,0.055085,-0.010224,-0.039216,-0.084993
-0.011139,-0.0022889,-0.088045,-0.076448,0.023651,-0.011749,-0.035554,-0.059663
-0.051118,0.022431,-0.096895,-0.1033,0.0053407,-0.013886,-0.01236,-0.031891
-0.077974,0.026093,-0.092317,-0.10971,-0.010834,-0.0035096,-0.0019837,0.002594
-0.08011,0.0206,-0.11978,-0.099947,-0.034333,0.018158,0.030976,0.051423
-0.093843,0.042267,-0.078584,-0.10941,-0.030365,0.020905,0.042267,0.077974
-0.090181,0.054475,-0.084077,-0.096284,-0.017548,0.0062562,0.041657,0.090791
-0.076143,0.027924,-0.084077,-0.10117,-0.014801,0.0071717,0.056611,0.09781
-0.049592,-0.02182,-0.04654,-0.070954,-0.019379,0.0047303,0.055695,0.074006
-0.002594,-0.045624,-0.030976,-0.061189,-0.014191,0.0090028,0.063325,0.069429
0.014801,-0.093538,-0.015717,-0.055695,0.0065614,0.019989,0.061189,0.041352
0.039521,-0.1149,0.0013733,-0.040742,0.019684,0.0053407,-0.19211,-0.016938
0.033417,-0.11551,-0.015412,-0.049287,0.035859,0.002594,-0.21195,-0.031891
0.037995,-0.11093,-0.016022,-0.035554,0.05539,0.011139,0.022736,-0.034943
0.02884,-0.099641,-0.022126,-0.058747,0.066072,0.014801,0.069429,-0.017548
0.023957,-0.088655,-0.034943,-0.045319,0.053559,0.014801,0.047761,-0.015717
0.009308,-0.049592,-0.062104,-0.073396,0.045014,-0.0010681,0.020294,-0.040742
-0.023346,-0.018463,-0.076753,-0.090791,0.043793,-0.012055,0.0074769,-0.020905
-0.076143,0.009308,-0.095064,-0.099947,0.0071717,-0.016938,0.0077821,-0.0035096
-0.11246,0.035554,-0.10239,-0.10452,-0.0047303,-0.014191,0.0099184,0.00045777
-0.1561,0.065461,-0.1149,-0.11032,-0.01236,0.0032044,0.041352,0.035859
-0.13413,0.054475,-0.10117,-0.10147,-0.042573,0.044709,0.095979,0.078279
-0.12192,0.042573,-0.097505,-0.08835,-0.061494,0.063325,0.10147,0.067597
-0.099336,0.049592,-0.09659,-0.097505,-0.059663,0.050202,0.070039,0.070344
-0.050813,0.017853,-0.058137,-0.0972,-0.046845,0.05539,0.057527,0.07187
-0.019379,-0.038605,-0.031586,-0.086519,-0.021515,0.025483,0.0013733,0.067903
0.005951,-0.084993,-0.020905,-0.034638,-0.00076295,0.0038148,-0.043183,0.086824
0.02884,-0.097505,-0.012055,-0.051118,0.0206,-0.0019837,-0.031891,0.068208
0.039216,-0.11093,-0.013886,-0.046845,0.03769,-0.0071717,-0.0090028,0.0071717
0.075227,-0.13046,-0.019074,-0.052338,0.029755,-0.0013733,0.01297,-0.063325
0.061189,-0.13077,-0.019074,-0.038605,0.039216,0.005951,0.002594,-0.090791
0.029145,-0.097505,-0.031586,-0.059052,0.060273,0.00045777,-0.014801,-0.10544
0.032807,-0.082856,-0.044404,-0.062409,0.046235,0.013886,-0.0013733,-0.13626
0.0065614,-0.056306,-0.075837,-0.073091,0.051728,0.018158,-0.014191,-0.1146
-0.0068666,-0.030365,-0.077363,-0.085603,0.051423,-0.0019837,-0.015717,-0.059663
-0.048371,0.017853,-0.094759,-0.084382,0.026703,-0.0080873,0.002594,-0.033722
-0.074922,0.047761,-0.090486,-0.098421,0.0050355,0.00045777,0.0099184,0.030365
-0.072175,0.021515,-0.074311,-0.098421,-0.015412,0.0044251,0.0074769,0.090181
-0.075837,0.035859,-0.086213,-0.10056,-0.031586,0.0071717,0.0068666,0.10086
-0.071565,0.02945,-0.075227,-0.099336,-0.02121,-0.0013733,-0.0047303,0.073701
-0.086824,0.033112,-0.076143,-0.099947,-0.0206,-0.0050355,-0.0083925,0.064546
-0.057832,-0.014801,-0.08011,-0.087739,-0.022431,0.0062562,0.025483,0.096284
-0.027314,-0.050813,-0.059052,-0.075227,-0.025177,0.012055,0.051118,0.087739
-0.010529,-0.097505,-0.0383,-0.056306,-0.0065614,0.0099184,0.048371,0.045014
0.033417,-0.092317,-0.022736,-0.037079,0.019684,0.0071717,0.018158,0.030976
0.059358,-0.093538,-0.021515,-0.046235,0.041657,-0.0028992,-0.012665,-0.031281
0.041352,-0.08896,-0.0077821,-0.05478,0.051118,-0.0022889,-0.011444,-0.091096
0.0050355,-0.095369,-0.018158,-0.048371,0.045319,0.030365,0.02121,-0.085908
0.0019837,-0.094453,-0.019074,-0.066987,0.048371,0.030671,0.025788,-0.057832
-0.0074769,-0.070649,-0.043183,-0.068818,0.040436,0.018463,0.027619,-0.020905
-0.037079,-0.048981,-0.059968,-0.064851,0.036164,0.03006,0.023957,-0.0028992
-0.037079,-0.018158,-0.081025,-0.077668,0.017548,0.010834,0.0068666,0.024872
-0.041962,0.015717,-0.099031,-0.078584,0.0035096,-0.015717,-0.0090028,0.009308
-0.087434,0.041962,-0.10819,-0.10941,-0.002594,-0.014191,-0.010224,-0.014191
-0.1091,0.051423,-0.09659,-0.11063,-0.016938,0.002594,0.0074769,0.013581
-0.091402,0.052644,-0.11246,-0.11978,-0.032197,0.0083925,0.023346,0.067292
-0.089265,0.039216,-0.090181,-0.10941,-0.041962,0.0083925,0.03006,0.10849
-0.10025,0.034333,-0.062715,-0.11643,-0.044709,0.009308,0.039521,0.11551
-0.087434,0.016632,-0.091096,-0.084993,-0.030671,0.032197,0.063325,0.12253
-0.08835,-0.030976,-0.02884,-0.065461,-0.028534,0.058747,0.058137,0.092927
-0.049897,-0.068513,-0.01297,-0.05478,-0.018463,0.055695,0.02945,0.068513
0.0090028,-0.11673,-0.018463,-0.037385,0.025483,0.032502,0.027008,0.032197
0.047456,-0.14878,0.034943,-0.031281,0.061799,0.02121,0.035859,-0.014191
0.076753,-0.13413,-0.0038148,-0.047456,0.073396,0.0050355,0.0019837,-0.055085
0.055085,-0.10544,-0.0062562,-0.053254,0.060273,0.00076295,-0.035554,-0.10025
0.044404,-0.095369,-0.0080873,-0.04654,0.05417,0.0047303,-0.030365,-0.10513
-0.0032044,-0.045319,-0.084382,-0.072786,0.058442,-0.0096132,-0.029145,-0.068208
-0.0206,-0.011749,-0.10208,-0.097505,0.04593,-0.0074769,-0.04715,-0.04654
-0.035859,0.016327,-0.10636,-0.087739,0.022736,-0.0077821,-0.048981,-0.029145
-0.051728,0.027314,-0.076753,-0.091402,-0.0086976,-0.019379,-0.031281,-0.031586
-0.070039,0.014191,-0.088655,-0.094453,-0.022431,-0.0041199,0.018769,-0.0047303
-0.090181,-0.0013733,-0.11337,-0.10666,-0.020294,0.0028992,0.011444,0.024872
-0.085908,0.031891,-0.1091,-0.11032,-0.037079,-0.0038148,0.010834,0.073701
-0.059358,0.02182,-0.084993,-0.095369,-0.049592,0.0032044,0.036164,0.098116
-0.04715,0.022431,-0.08896,-0.092317,-0.036469,0.0077821,0.030976,0.11063
-0.024567,-0.005951,-0.017853,-0.079194,-0.030976,0.002594,0.023651,0.10239
0.0016785,-0.05478,-0.027924,-0.059663,-0.014191,0.013275,0.027619,0.070344
0.023957,-0.093843,0.0080873,-0.055695,0.0047303,0.019989,0.04593,0.039216
0.036774,-0.12497,-0.016327,-0.036774,0.02884,0.019379,0.02945,0.0077821
0.051118,-0.10971,-0.0080873,-0.037385,0.062104,0.014496,0.023957,-0.014191
0.043793,-0.11643,-0.023041,-0.045319,0.066682,0.020294,0.0071717,-0.034333
0.034943,-0.093843,-0.039826,-0.079805,0.066682,-0.0032044,-0.018158,-0.079805
0.017243,-0.092622,-0.056916,-0.056611,0.038911,0.0010681,-0.012055,-0.08011
-0.0080873,-0.05478,-0.08072,-0.067292,0.025788,0.020905,-0.0022889,-0.068818
-0.041047,0.012665,-0.08957,-0.087434,0.0383,0.0071717,-0.015412,-0.056611
-0.050813,0.017548,-0.0972,-0.11398,0.016022,0.0053407,0.016632,-0.031586
-0.084993,0.040131,-0.10666,-0.08896,-0.010834,0.018769,0.022126,-0.013581
-0.078279,0.022736,-0.084077,-0.073091,-0.019684,0.018463,0.023041,0.0041199
-0.08011,-0.017853,-0.053864,-0.087434,-0.031281,0.010224,0.021515,0.0065614
-0.094148,0.010529,-0.072786,-0.094453,-0.013581,-0.011749,-0.01297,0.034028
-0.11398,0.048066,-0.10117,-0.103,-0.026398,-0.016938,0.013275,0.1149
-0.089876,-0.0022889,-0.070344,-0.086824,-0.033112,0.0032044,0.04654,0.14542
-0.058747,-0.024262,-0.05417,-0.069734,-0.010224,0.019379,0.058137,0.12894
-0.029755,-0.054475,-0.018463,-0.061494,0.005951,0.021515,0.055695,0.097505
-0.010529,-0.087434,-0.011444,-0.073701,0.012055,0.023041,0.041657,0.052949
-0.0086976,-0.090486,-0.011444,-0.068818,0.023346,0.044099,0.03769,0.0065614
0.02182,-0.1088,-0.0086976,-0.047456,0.031586,0.042267,0.012665,-0.058747
0.036164,-0.12253,-0.01297,-0.039216,0.043183,0.015106,-0.029755,-0.059968
0.03769,-0.097505,-0.019074,-0.037385,0.055695,0.002594,-0.02945,-0.053254
0.022736,-0.06363,-0.060578,-0.065461,0.05539,0.002594,-0.025177,-0.072175
-0.016327,-0.030365,-0.077058,-0.094759,0.048371,0.0038148,-0.011139,-0.065766
-0.017548,-0.022126,-0.092317,-0.098726,0.023041,0.0038148,0.00076295,-0.009308
-0.016938,-0.00015259,-0.099031,-0.093233,-0.0013733,0.011444,0.0099184,0.02884
