-0.0065614,-0.15427,0.024262,-0.028229,0.0068666,0.011139,0.020905,0.090486
0.027314,-0.16342,0.017853,-0.046845,0.037995,0.012665,-0.010224,0.041352
0.047761,-0.13901,0.0062562,-0.033417,0.024872,0.063325,0.050507,-0.0010681
0.048066,-0.06424,0.030365,-0.036164,0.049592,0.055085,0.07187,-0.034943
0.048981,-0.06424,-0.010834,-0.041352,0.064546,0.0053407,0.013886,-0.12039
0.053864,-0.13169,-0.010529,-0.031281,0.052949,0.00045777,-0.0013733,-0.14359
0.0010681,-0.038911,-0.07126,-0.056611,0.048371,0.0038148,-0.029755,-0.14267
-0.021515,0.0044251,-0.1033,-0.087434,0.034333,0.0071717,-0.077974,-0.10178
-0.051423,0.037079,-0.11612,-0.099947,0.022736,0.020905,-0.031281,-0.041047
-0.058137,0.040131,-0.12253,-0.11185,0.0019837,-0.0022889,0.022126,0.037079
-0.052644,0.02945,-0.12161,-0.11337,-0.009308,-0.045014,-0.025788,0.08011
-0.078889,0.040742,-0.12497,-0.12039,-0.027619,-0.02945,-0.023651,0.07126
-0.06302,0.014191,-0.11307,-0.11948,-0.051423,0.009308,-0.0083925,0.037995
-0.059358,0.0035096,-0.095064,-0.092927,-0.044709,0.010834,0.033417,0.034943
-0.017548,-0.094759,-0.081331,-0.070954,-0.034333,0.017853,0.051118,0.033722
-0.009308,-0.064546,-0.039216,-0.078889,-0.0086976,-0.0019837,-0.022431,0.010834
0.043793,-0.02945,0.0041199,-0.063325,0.017853,-0.018158,-0.037385,-0.011139
0.060578,-0.072175,0.0022889,-0.057527,0.01297,0.005951,0.02121,-0.020294
0.03006,-0.10483,-0.01297,-0.040742,0.0074769,0.0065614,0.024262,-0.053254
0.017243,-0.082551,-0.019074,-0.040436,0.022126,0.0041199,0.011444,-0.030976
-0.010529,-0.064851,-0.01236,-0.037079,0.025788,0.026398,0.0090028,-0.030671
0.0383,-0.12009,0.023957,-0.026398,0.027924,0.024262,0.002594,-0.011444
0.014801,-0.10605,-0.026398,-0.045624,0.059663,0.00076295,0.0038148,-0.07126
-0.0096132,-0.10971,-0.032807,-0.069429,0.08072,-0.01297,-0.026398,-0.10147
-0.026703,-0.084382,-0.078279,-0.068513,0.04715,-0.0041199,-0.026703,-0.02945
-0.070954,0.050507,-0.13291,-0.12467,0.02945,-0.0096132,-0.0096132,-0.010224
-0.11917,0.095674,-0.13718,-0.1268,-0.01236,0.018158,0.0032044,0.013275
-0.11948,0.11429,-0.13077,-0.14084,-0.043488,0.030671,0.029755,0.04593
-0.1384,0.12589,-0.13443,-0.11887,-0.057527,0.027314,0.11002,0.1268
-0.13993,0.069734,-0.103,-0.121,-0.063325,0.026398,0.14237,0.18173
-0.099031,0.022126,-0.089265,-0.094759,-0.050813,0.014496,0.085603,0.18021
-0.087129,-0.02945,-0.046235,-0.060273,-0.033417,0.011139,0.066377,0.16648
-0.075227,-0.062104,-0.024567,-0.074922,-0.012055,-0.0099184,0.0071717,0.11795
-0.039826,-0.0795,-0.026398,-0.10941,0.0068666,0.031586,0.08957,0.060578
-0.025788,-0.092317,0.025483,-0.042878,0.016022,0.080415,0.22507,-0.01236
0.0068666,-0.10391,0.010834,-0.031586,0.027008,0.053559,0.18112,-0.041047
0.058137,-0.13626,0.005951,-0.03006,0.02884,0.018769,-0.070649,-0.084077
0.03769,-0.11368,-0.034943,-0.036469,0.037995,-0.025177,-0.86625,-0.15457
0.046235,-0.10361,-0.012055,-0.062715,0.055695,-0.0022889,-0.20645,-0.11826
0.055695,-0.090181,-0.048066,-0.066682,0.052033,0.02945,0.31174,-0.049592
0.045624,-0.066987,-0.073091,-0.076448,0.035554,0.02884,0.14267,-0.049897
-0.0074769,-0.020905,-0.12161,-0.087129,0.076753,-0.06424,0.10086,-0.046845
-0.030365,0.062104,-0.10208,-0.076753,0.069429,-0.0795,-0.21805,-0.019379
-0.048371,0.033722,-0.092622,-0.082246,0.022126,-0.0086976,-0.03769,0.033417
-0.042878,0.028229,-0.12345,-0.12375,-0.016632,-0.0096132,0.10452,0.057221
-0.083162,0.010529,-0.080415,-0.09659,-0.041352,0.0077821,0.063325,0.059052
-0.090791,0.025788,-0.13474,-0.091402,-0.045319,-0.0041199,0.15244,0.051118
-0.074922,0.056001,-0.095064,-0.10727,-0.043183,0.023346,0.1387,0.053254
-0.053864,0.037995,-0.05417,-0.095674,-0.033417,0.034943,0.09781,0.051728
-0.036774,-0.036164,-0.030365,-0.071565,-0.024262,-0.009308,-0.050813,0.048371
0.0050355,-0.11154,0.036469,-0.019379,-0.022736,-0.032197,-0.34623,-0.0056458
0.053559,-0.13046,0.018463,-0.0096132,0.025788,-0.0071717,-0.25925,-0.049287
0.053559,-0.11032,0.009308,-0.069734,0.053254,0.062104,0.18112,-0.025177
0.066377,-0.15396,0.041657,-0.045624,0.03006,0.049592,0.11673,-0.017548
0.037995,-0.15183,-0.011444,-0.048371,0.034333,0.047456,0.096895,-0.034638
0.0086976,-0.16342,-0.039826,-0.064851,0.04593,0.019074,0.074617,-0.08896
0.018158,-0.085908,-0.070039,-0.074311,0.042878,0.0053407,-0.0065614,-0.018463
-0.03769,-0.059968,-0.11612,-0.074617,0.037995,-0.012055,-0.077668,0.013886
-0.095064,0.040131,-0.10147,-0.096895,0.043793,-0.029145,-0.062104,0.0041199
-0.11856,0.090181,-0.11154,-0.12955,0.019379,0.019074,0.14237,0.057527
-0.12039,0.086213,-0.11917,-0.11521,-0.010834,0.043183,0.24979,0.094453
-0.1207,0.11582,-0.15488,-0.12192,-0.032197,0.04654,0.25559,0.11215
-0.11124,0.057527,-0.090486,-0.11032,-0.050813,0.051423,0.24308,0.075837
-0.10544,0.047456,-0.089265,-0.10727,-0.052644,0.033417,-0.091707,0.031891
-0.057832,0.037995,-0.077058,-0.085298,-0.034638,-0.051423,-0.86564,-0.010834
-0.037385,-0.016327,-0.055085,-0.054475,-0.019379,-0.086519,-0.11551,0.038911
-0.030671,-0.084382,0.002594,-0.049592,-0.00015259,0.033417,0.17685,0.031281
0.025788,-0.12192,0.009308,-0.052644,0.0056458,0.031281,0.043183,0.043488
0.049287,-0.12741,-0.0016785,-0.048981,0.031586,-0.016938,0.065156,0.013581
0.058442,-0.13993,0.011444,-0.043183,0.042878,0.014191,0.1442,-0.014801
0.040131,-0.12253,0.0013733,-0.032807,0.059663,0.018463,0.12711,-0.031586
0.034028,-0.10971,-0.0053407,-0.057221,0.070039,0.0062562,0.0383,-0.067292
0.027314,-0.094148,-0.025483,-0.056916,0.048371,0.022736,0.0032044,-0.11337
-0.031586,-0.031891,-0.077058,-0.071565,0.049592,0.0077821,-0.11398,-0.11246
-0.035554,0.0035096,-0.0972,-0.099031,0.031891,0.0047303,-0.012055,-0.031281
-0.049287,0.017243,-0.12375,-0.10269,0.00045777,0.012665,0.04654,0.027924
-0.068818,0.041352,-0.13046,-0.098421,-0.014496,0.0019837,0.02182,0.015412
-0.085908,0.06424,-0.12985,-0.1146,-0.023346,-0.0019837,0.027619,0.002594
-0.081636,0.06424,-0.11276,-0.12528,-0.034943,0.002594,0.022126,0.04715
-0.070039,0.027924,-0.10513,-0.10147,-0.039216,0.021515,0.031281,0.093538
-0.047761,0.02121,-0.092622,-0.10086,-0.032197,0.0206,0.034028,0.088045
-0.031586,-0.022431,-0.0383,-0.08072,-0.024567,0.015106,0.041047,0.06302
0.011444,-0.042267,-0.023957,-0.069429,-0.018463,0.014496,0.020905,0.052033
-0.002594,-0.081331,0.0062562,-0.046845,-0.011139,0.0044251,0.011749,0.066682
0.020294,-0.13291,0.032807,-0.036164,0.0016785,0.00015259,0.043488,0.057221
0.015412,-0.13291,0.030365,-0.022431,0.039216,0.016022,0.049897,0.015412
0.020294,-0.1442,0.0099184,-0.028229,0.080415,0.027924,0.051423,-0.014496
0.020905,-0.12009,-0.034943,-0.042573,0.066377,0.011444,-0.012665,-0.037385
-0.016327,-0.069429,-0.026093,-0.049287,0.053864,-0.0016785,-0.041962,-0.053864
-0.021515,-0.054475,-0.04654,-0.067292,0.04593,-0.0016785,-0.048676,-0.039521
-0.052644,-0.0099184,-0.08011,-0.084993,0.023651,0.00015259,-0.0071717,-0.031891
-0.08072,0.053559,-0.10727,-0.1091,0.0019837,0.023346,0.057527,-0.039826
-0.063325,0.048066,-0.13077,-0.11398,-0.0090028,0.027008,0.051423,-0.033722
-0.084382,0.057221,-0.14115,-0.1265,-0.0083925,0.0041199,0.1146,-0.021515
-0.093843,0.049592,-0.13443,-0.13901,-0.0206,-0.0086976,-0.017243,0.01297
-0.059663,-0.057527,-0.065156,-0.06424,-0.029755,-0.03006,-0.37491,0.056611
-0.0090028,-0.033722,-0.076753,-0.051423,-0.0013733,-0.024262,0.020294,0.093538
-0.030976,0.0074769,-0.053864,-0.095674,0.019379,-0.0080873,0.11429,0.059968
-0.0056458,-0.04593,-0.0383,-0.073091,-0.014801,0.014801,0.025483,0.10758
0.0016785,-0.083467,0.0074769,-0.016632,-0.013581,-0.0080873,0.041657,0.06363
-0.002594,-0.048676,-0.032807,-0.07248,0.023041,0.0010681,0.017853,-0.002594
-0.018463,-0.052949,0.0016785,-0.0795,0.024262,0.057221,0.045014,-0.046845
-0.034638,-0.05478,-0.040742,-0.066377,0.00076295,0.063325,0.072175,-0.075532
-0.024872,-0.093538,0.0086976,-0.045319,0.023041,0.039216,0.025177,-0.055695
-0.0074769,-0.10819,-0.010834,-0.053254,0.043183,0.0090028,0.009308,-0.061494
0.016632,-0.10636,-0.03006,-0.052644,0.045014,0.0053407,0.017243,-0.059358
-0.019074,-0.07187,-0.056611,-0.082551,0.056001,0.0044251,0.013275,0.0053407
-0.022431,-0.059358,-0.074617,-0.091707,0.033417,0.0044251,0.036774,0.094148
-0.047761,-0.031891,-0.10727,-0.089876,-0.0080873,0.010529,-0.0010681,0.097505
-0.057832,-0.0083925,-0.11978,-0.103,-0.0062562,0.01297,0.0086976,0.076143
-0.059358,-0.023346,-0.13504,-0.091402,0.0074769,-0.0090028,-0.016632,0.049897
-0.070039,0.048676,-0.12284,-0.084382,-0.010529,0.00015259,-0.0206,0.051423
-0.068818,0.090181,-0.11704,-0.085603,-0.042573,0.015106,0.029755,0.053864
-0.07126,0.09659,-0.0972,-0.10513,-0.035859,0.0083925,0.074617,0.060273
-0.045014,0.024567,-0.073396,-0.080415,-0.022431,0.0099184,0.015106,0.05539
-0.015717,0.0038148,-0.026398,-0.11887,-0.035554,0.0032044,-0.034943,0.049287
-0.0065614,-0.040436,-0.0013733,-0.10575,-0.0010681,-0.011749,-0.10025,-0.002594
0.039216,-0.084077,0.005951,-0.039521,0.0041199,0.031586,-0.010529,0.0035096
0.016938,-0.086824,0.0074769,-0.030671,0.034333,0.059663,0.14725,-0.021515
0.030365,-0.13382,0.031586,-0.0096132,0.060578,0.026703,0.017853,-0.069429
0.029755,-0.10666,0.0019837,-0.030976,0.057527,-0.0056458,-0.051728,-0.08072
0.039521,-0.099336,-0.00045777,-0.033417,0.074006,-0.034028,-0.092012,-0.099947
0.026703,-0.087739,-0.025788,-0.035248,0.059358,0.016938,-0.031586,-0.097505
0.031281,-0.098116,-0.070039,-0.069123,0.059052,0.027008,0.045624,-0.079805
0.040436,-0.10819,-0.10361,-0.11246,0.035248,0.0032044,0.0053407,-0.041352
-0.016938,-0.005951,-0.12467,-0.11704,-0.00076295,-0.0035096,-0.0047303,-0.026703
-0.074617,0.050202,-0.13138,-0.12497,-0.025483,0.0077821,0.017243,-0.016938
-0.10849,0.06363,-0.12131,-0.1088,-0.032197,-0.0077821,0.11765,0.038911
-0.12345,0.055695,-0.11521,-0.11154,-0.027314,0.00045777,0.089265,0.074311
-0.11582,0.025483,-0.10605,-0.08957,-0.030671,-0.0090028,0.055085,0.085908
-0.11368,0.032197,-0.074617,-0.08957,-0.022126,-0.045014,-0.085298,0.086519
-0.11368,0.033722,-0.052338,-0.091402,-0.021515,-0.043488,-0.31724,0.076448
-0.10147,0.022736,-0.042267,-0.086824,-0.044709,0.023346,0.035248,0.121
-0.047761,-0.055695,-0.016022,-0.069429,-0.024262,0.032807,0.10452,0.12406
-0.0032044,-0.095979,0.010529,-0.05478,-0.0062562,0.042573,0.064546,0.091402
0.030365,-0.11612,0.0022889,-0.053559,-0.0041199,0.07248,0.093538,0.052338
0.039216,-0.11398,0.013581,-0.041657,0.021515,0.085908,0.095674,-0.0044251
0.031586,-0.10605,-0.0099184,-0.039216,0.05417,0.060578,0.10422,-0.058137
0.027924,-0.10575,-0.017853,-0.043488,0.078584,0.04715,0.066682,-0.041047
0.053864,-0.13626,-0.052338,-0.051118,0.075227,0.037995,-0.03769,-0.021515
0.03006,-0.10697,-0.10025,-0.072786,0.053864,0.018158,0.0080873,-0.06363
-0.016938,0.057221,-0.15488,-0.096895,0.040436,-0.0080873,-0.010834,-0.08011
-0.084993,0.051118,-0.11124,-0.09781,0.033722,-0.032197,-0.031891,-0.070954
-0.075837,0.016022,-0.064851,-0.10513,-0.0056458,-0.034028,-0.0050355,0.0053407
-0.071565,-0.0065614,-0.067292,-0.10697,-0.025788,-0.04715,0.012055,0.049592
-0.065766,0.037079,-0.08957,-0.11673,-0.039521,0.00015259,-0.017548,0.039521
-0.089876,0.10117,-0.10452,-0.11704,-0.055695,0.016938,-0.050507,0.025177
-0.08011,0.10941,-0.10605,-0.099641,-0.05539,0.0083925,0.00045777,0.070344
-0.040436,-0.0038148,-0.063325,-0.07248,-0.044404,0.022736,0.075227,0.092317
-0.031281,-0.050813,-0.042878,-0.082856,-0.0071717,-0.023346,0.081941,0.043183
0.024872,-0.13748,0.032197,-0.028229,0.011749,-0.020294,0.011444,0.019684
0.052949,-0.23392,0.05417,0.009308,0.042267,0.011444,0.026703,0.0065614
0.057221,-0.15457,0.005951,-0.014496,0.082551,0.021515,0.15488,-0.033417
0.043183,-0.10819,-0.0099184,-0.050507,0.10178,0.0053407,0.060273,-0.065461
0.028229,-0.095979,-0.042267,-0.067292,0.059968,0.016327,-0.022736,-0.076753
0.035554,-0.066987,-0.052949,-0.05539,0.027314,0.031281,0.16648,-0.057221
0.0071717,-0.056916,-0.055695,-0.052338,0.028229,0.024567,0.18296,-0.06302
-0.037079,-0.033417,-0.069429,-0.088655,0.048371,-0.041352,-0.59098,-0.12375
-0.066682,0.017548,-0.092317,-0.096895,0.025177,-0.034333,-0.56992,-0.031281
-0.11582,0.053559,-0.12345,-0.099947,-0.0013733,-0.01297,0.24582,0.043488
-0.061799,0.056306,-0.13474,-0.10727,-0.01236,-0.0056458,0.075227,0.084688
-0.0795,0.077668,-0.12955,-0.12467,-0.038605,0.014801,0.060578,0.1091
-0.11185,0.081941,-0.10117,-0.11917,-0.035248,0.019074,0.087739,0.10147
-0.10727,0.040742,-0.10025,-0.11093,-0.045319,0.036164,0.041047,0.11215
-0.065766,0.00045777,-0.058747,-0.083772,-0.040436,0.018463,0.045624,0.092927
-0.016327,-0.042267,-0.043183,-0.076753,-0.022431,0.015106,0.065156,0.057832
-0.019074,-0.053864,-0.021515,-0.058137,-0.015717,0.010834,0.023651,0.02945
0.016632,-0.083467,-0.018769,-0.060273,0.0032044,0.0013733,0.0065614,0.023651
0.0383,-0.14023,0.019684,-0.048676,0.02884,0.00076295,-0.00015259,0.0080873
0.063935,-0.15213,0.011444,-0.048371,0.041962,0.009308,0.0050355,-0.029145
0.066377,-0.12467,0.0038148,-0.043488,0.036164,0.03006,0.040131,-0.06302
0.048066,-0.12467,0.0041199,-0.033112,0.040436,0.031586,0.049897,-0.064851
0.0032044,-0.070649,-0.025483,-0.034943,0.059052,0.018463,0.025177,-0.059968
-0.081331,0.0041199,-0.072175,-0.081331,0.07248,0.013275,0.015106,-0.065156
-0.11826,0.035248,-0.093538,-0.10178,0.037995,0.038911,0.035248,-0.033417
-0.0972,0.048066,-0.10147,-0.11154,-0.00015259,0.050202,0.059968,0.0099184
-0.092317,0.043488,-0.12345,-0.096895,0.0074769,0.044099,0.053559,0.060273
-0.084993,0.039216,-0.12314,-0.087739,-0.01297,0.011444,0.014801,0.084077
-0.073396,0.059663,-0.12711,-0.11734,-0.013275,-0.022736,-0.016938,0.11612
-0.057221,0.0013733,-0.10544,-0.1146,-0.020294,-0.041962,-0.014496,0.11246
-0.037385,-0.0383,-0.11643,-0.11063,-0.043183,-0.016022,-0.01236,0.10178
-0.019684,-0.056611,-0.070954,-0.073701,-0.04593,0.023957,0.035248,0.052338
-0.027008,-0.093843,-0.026093,-0.081025,-0.027619,0.023346,0.034333,0.01297
-0.0013733,-0.11246,0.049592,-0.044099,-0.0053407,0.0090028,0.021515,0.015412
0.025177,-0.078584,0.0083925,-0.015412,0.027924,0.015412,0.022126,-0.034333
0.031891,-0.084993,-0.0035096,-0.046845,0.046845,0.0077821,-0.012665,-0.056916
0.035859,-0.11276,0.0022889,-0.040742,0.062104,-0.0086976,-0.024262,-0.083467
0.013581,-0.11398,-0.0044251,-0.055695,0.059358,0.0022889,-0.017243,-0.10575
0.015717,-0.096284,-0.017853,-0.052644,0.053254,0.0071717,-0.028534,-0.084993
0.0019837,-0.062715,-0.054475,-0.070954,0.037385,0.00015259,-0.013581,-0.066072
-0.051423,-0.015412,-0.074006,-0.096895,0.023346,0.018463,0.0086976,-0.061189
-0.043183,0.0083925,-0.10117,-0.083772,0.013886,0.0206,0.027008,0.030976
-0.034333,0.02945,-0.12314,-0.087129,0.0080873,0.02121,0.057832,0.06424
-0.06302,0.086519,-0.13748,-0.10788,-0.00076295,-0.0022889,-0.0028992,0.0096132
-0.085298,0.087739,-0.11978,-0.10636,-0.026398,-0.0013733,-0.012665,0.041047
-0.094148,0.053864,-0.099641,-0.09659,-0.031586,0.014496,0.041047,0.095674
-0.10117,0.0206,-0.090791,-0.10178,-0.03769,0.0019837,0.02121,0.099641
-0.069734,0.019074,-0.069429,-0.096895,-0.02884,0.0080873,0.012055,0.076753
-0.019684,-0.049592,-0.033112,-0.074922,-0.034638,0.022431,0.02121,0.044404
0.019684,-0.056916,-0.014496,-0.062715,-0.00045777,0.010529,0.009308,0.016632
0.054475,-0.082246,0.016022,-0.048371,0.013581,0.0099184,0.0028992,0.010834
0.041657,-0.12406,-0.016327,-0.055085,0.019379,0.0099184,-0.0053407,-0.025177
0.10178,-0.19638,-0.038911,-0.04654,0.023957,0.016022,-0.0044251,-0.010224
0.10452,-0.14054,0.020905,-0.027619,0.042267,0.016938,-0.011139,-0.05539
0.059358,-0.10239,0.0041199,-0.04715,0.059968,0.010834,-0.018463,-0.11032
-0.028229,-0.10361,-0.01236,-0.05417,0.059358,-0.0035096,-0.031891,-0.081941
-0.049897,-0.074311,-0.016327,-0.033722,0.045014,0.0071717,-0.013581,-0.023651
-0.033722,-0.040131,-0.11978,-0.03769,0.039521,0.018769,0.011139,0.0099184
-0.11063,0.040742,-0.1387,-0.15732,0.033112,0.010529,0.0071717,-0.0028992
-0.16068,0.10636,-0.13321,-0.1387,-0.0035096,0.034638,0.037079,0.0383
-0.14359,0.041962,-0.084382,-0.093538,-0.051118,0.049592,0.07126,0.10452
-0.11002,0.015106,-0.05478,-0.047761,-0.002594,-0.029145,0.022126,0.12406
-0.12924,0.11551,-0.13504,-0.13107,0.030365,-0.053254,-0.0086976,0.14511
-0.1384,0.11673,-0.11643,-0.1561,-0.013275,-0.0074769,0.030365,0.18051
-0.08835,0.017243,-0.059968,-0.10452,-0.067903,0.050507,0.076143,0.17685
0.0065614,-0.033417,-0.047761,-0.080415,-0.060883,0.048066,0.070649,0.14542
0.055695,-0.096895,0.0019837,-0.059663,-0.031586,0.04715,0.076448,0.059358
0.08072,-0.21225,0.024262,-0.014191,-0.01297,0.042878,0.073396,-0.050507
0.074617,-0.19608,0.045624,0.023957,0.043183,0.00076295,0.066682,-0.08011
0.024262,-0.082246,-0.045624,-0.055085,0.086824,-0.018769,0.084688,-0.14878
0.031586,-0.081636,-0.060883,-0.068818,0.057832,0.0013733,-0.0071717,-0.16098
0.017853,-0.052338,-0.016938,-0.062715,0.035248,-0.029145,-0.44724,-0.15396
-0.0010681,-0.103,-0.024567,-0.055085,0.041047,-0.014801,-0.21256,-0.11185
-0.021515,-0.094453,-0.040742,-0.070954,0.041352,0.014191,0.037385,-0.076143
-0.01236,-0.068818,-0.066682,-0.07126,0.035248,0.012055,0.069429,-0.038911
-0.048981,0.0032044,-0.11948,-0.11246,0.0013733,0.0068666,0.036774,-0.01297
-0.063325,0.057832,-0.14969,-0.11032,-0.018463,0.0022889,0.032807,-0.0013733
-0.095979,0.059968,-0.12039,-0.12161,-0.016632,-0.0056458,0.048371,0.0047303
-0.10758,0.074311,-0.10971,-0.11093,-0.019379,-0.0090028,0.058137,0.077363
-0.099641,0.056611,-0.10483,-0.10971,-0.029145,0.0086976,0.06302,0.14847
-0.064851,0.085908,-0.08957,-0.10452,-0.023346,0.027924,0.051728,0.16098
-0.030671,0.075532,-0.060883,-0.085603,-0.020294,0.026703,0.0028992,0.14786
0.0041199,-0.018158,-0.029145,-0.081025,-0.017548,0.009308,-0.029755,0.074311
0.015106,-0.084382,-0.0056458,-0.044709,-0.0019837,0.0053407,0.032807,0.02121
0.025483,-0.12436,0.022126,-0.023651,0.0013733,0.016632,0.033722,-0.0062562
0.062409,-0.17655,0.00045777,-0.024872,0.045624,0.0019837,0.0071717,-0.0080873
0.049592,-0.17685,0.020905,-0.016022,0.086824,-0.016327,0.0086976,-0.023346
0.048066,-0.1323,-0.0096132,-0.040436,0.073701,0.0062562,0.03006,-0.05478
0.016938,-0.057832,-0.0206,-0.05478,0.062104,0.049287,0.10178,-0.063935
-0.0056458,-0.063935,-0.054475,-0.080415,0.043183,0.030365,0.12863,-0.057221
-0.041657,-0.02182,-0.076753,-0.10086,0.043488,-0.019684,0.16892,-0.072175
-0.069123,0.020294,-0.11032,-0.1088,0.0016785,0.0083925,0.086519,-0.084382
-0.051423,0.027924,-0.12833,-0.1088,-0.039826,0.06363,-0.12039,-0.072786
-0.094453,0.039521,-0.12253,-0.103,-0.045624,0.072175,-0.073091,-0.024872
-0.12528,0.060578,-0.12345,-0.11704,-0.025177,-0.025788,-0.74144,-0.0074769
-0.11063,0.053559,-0.10636,-0.10575,-0.028229,-0.0035096,-0.11765,0.10758
-0.10697,0.0206,-0.080415,-0.10361,-0.026398,0.010834,0.26902,0.17075
-0.072175,0.016632,-0.075837,-0.08896,0.002594,-0.0032044,0.1622,0.14725
0.0074769,-0.012665,-0.042573,-0.083162,-0.0032044,0.024872,0.2034,0.15824
0.019379,-0.068208,-0.022126,-0.061494,-0.019074,-0.014191,0.015106,0.13901
0.02945,-0.12406,0.022431,-0.023041,0.00076295,-0.03769,-0.039521,0.039826
0.047761,-0.15946,-0.0019837,-0.065156,0.03006,0.013886,0.099641,-0.022736
0.0099184,-0.10575,-0.01236,-0.060883,0.036164,0.048676,0.11612,-0.045319
0.019379,-0.11429,-0.0019837,-0.037385,0.024872,0.043183,0.020905,-0.083467
0.010529,-0.13565,-0.028534,-0.044099,0.036774,0.032807,-0.11612,-0.094453
0.031281,-0.13016,-0.012055,-0.032197,0.041047,0.01297,-0.11917,-0.065156
-0.0019837,-0.090791,-0.014496,-0.01297,0.056001,-0.0010681,0.024262,-0.084382
-0.031586,-0.037995,-0.076753,-0.061494,0.07126,-0.032197,-0.019074,-0.070649
-0.057527,0.026093,-0.12161,-0.13321,0.048066,-0.00015259,0.086824,-0.00015259
-0.089265,0.073091,-0.12467,-0.13565,0.0019837,0.034943,0.2501,0.040436
-0.083772,0.08011,-0.13748,-0.11276,-0.042878,0.02121,0.07187,0.056611
-0.098421,0.098726,-0.13046,-0.10666,-0.059052,-0.010834,-0.11215,0.078279
-0.091096,0.094453,-0.11154,-0.10086,-0.038911,-0.075837,-0.35294,0.097505
-0.085298,0.026703,-0.084993,-0.09781,-0.03769,-0.034333,-0.28763,0.084382
-0.061494,-0.0206,-0.015717,-0.0795,-0.035859,0.060578,0.25956,0.062409
-0.041047,-0.005951,-0.044709,-0.072175,0.0053407,0.014496,0.21988,0.07248
-0.0062562,-0.037385,-0.028229,-0.065461,0.013275,0.05417,0.23789,0.075227
0.0065614,-0.077668,-0.002594,-0.048371,0.011139,0.067597,0.30777,0.036774
0.051118,-0.14176,0.0062562,-0.03769,0.029145,0.044099,0.17319,-0.030976
0.065461,-0.12833,0.0074769,-0.036469,0.033722,0.030365,0.14817,-0.11734
0.042878,-0.10971,-0.013581,-0.060273,0.049592,-0.019074,-0.37644,-0.12345
0.033112,-0.12375,-0.022126,-0.072786,0.042878,-0.016022,-0.81407,-0.11246
0.013886,-0.13169,-0.043183,-0.068513,0.026703,-0.019074,0.10056,-0.048981
0.02884,-0.15396,-0.060273,-0.057221,0.031281,-0.0028992,0.13718,-0.082856
0.0068666,-0.046235,-0.055695,-0.044709,0.037995,0.044099,0.044099,-0.098116
-0.059968,0.047456,-0.10452,-0.098421,0.055085,-0.019379,0.044404,-0.033417
-0.12345,0.08835,-0.14145,-0.12741,0.018158,-0.025483,0.015717,0.061189
-0.1146,0.087129,-0.12894,-0.12924,-0.030365,-0.0019837,0.041047,0.10361
-0.10971,0.10361,-0.12161,-0.11917,-0.048981,0.011139,0.047761,0.11917
-0.13413,0.11337,-0.12497,-0.12467,-0.062715,0.012665,0.044404,0.10422
-0.14755,0.089876,-0.08896,-0.11398,-0.050813,0.024567,0.066377,0.074311
-0.049287,-0.046845,-0.050507,-0.07126,-0.051118,0.04654,0.075837,0.14054
0.016938,-0.11887,0.011444,-0.04715,-0.034638,0.039216,0.042878,0.10422
0.031586,-0.13748,0.02945,-0.039521,0.016022,-0.0086976,0.0050355,0.014191
0.031586,-0.16831,0.0080873,0.026093,0.029145,-0.0053407,0.052949,0.02182
0.013886,-0.13199,-0.044099,-0.10544,0.078584,-0.019684,0.012665,-0.0096132
0.027619,-0.11582,0.034333,-0.059358,0.08835,-0.02884,-0.061494,-0.035554
0.034028,-0.094759,-0.018158,0.0019837,0.047761,0.028534,-0.051423,-0.064546
0.02945,-0.095369,-0.024262,-0.0206,0.058442,0.017243,-0.031281,-0.063325
0.048981,-0.063935,-0.016022,-0.051728,0.07126,-0.0099184,-0.032807,-0.047456
0.06363,-0.049592,-0.070649,-0.073396,0.051728,-0.015106,-0.034943,-0.043183
0.047456,-0.031891,-0.11643,-0.094453,0.027924,-0.023957,0.020905,-0.053559
-0.0022889,0.0053407,-0.13352,-0.10941,0.02182,0.0028992,0.11917,-0.069734
-0.10117,0.083467,-0.12161,-0.12161,-0.040742,0.050202,0.1564,-0.041047
-0.1503,0.090486,-0.12619,-0.121,-0.066682,0.040131,0.10849,0.036164
-0.13352,0.079805,-0.11307,-0.11063,-0.041657,0.0019837,0.019379,0.11398
-0.13199,0.0795,-0.103,-0.10697,-0.039826,-0.011444,-0.22477,0.070039
-0.11154,0.045319,-0.08011,-0.090791,-0.042573,-0.013275,-0.22904,0.039826
-0.089265,-0.027619,-0.032197,-0.060883,-0.027008,-0.0099184,-0.0083925,0.098726
-0.045624,-0.081941,-0.01236,-0.073701,0.010529,0.0038148,0.11765,0.060578
-0.016938,-0.086519,0.00015259,-0.064546,0.019074,0.00045777,0.07187,0.074617
0.0086976,-0.10636,0.00045777,-0.04715,0.0090028,0.043488,0.076448,0.085908
0.038911,-0.11826,-0.0065614,-0.043183,0.017853,0.064851,0.13809,0.045624
0.057832,-0.1442,-0.010834,-0.027619,0.025788,0.050507,0.17502,0.036774
0.077974,-0.14237,-0.0044251,-0.026093,0.041962,0.023957,0.062409,-0.030976
0.076143,-0.083772,-0.011749,-0.042267,0.07187,-0.011749,-0.33219,-0.10361
0.035859,-0.041352,-0.077974,-0.081331,0.065461,-0.005951,-0.092927,-0.08896
0.0028992,-0.047761,-0.064546,-0.0972,0.042878,0.0062562,0.11765,-0.059968
-0.030671,-0.021515,-0.095064,-0.095369,0.026093,-0.024872,-0.13352,-0.05478
-0.083467,0.039216,-0.13687,-0.11795,-0.0065614,0.016327,-0.26749,-0.059052
-0.103,0.056611,-0.11948,-0.12314,-0.034638,0.052644,0.11215,0.016938
-0.099947,0.062409,-0.10605,-0.1088,-0.043488,0.0041199,0.10178,0.030976
-0.10117,0.026398,-0.093538,-0.090486,-0.043793,0.00015259,0.070344,0.053864
-0.095369,0.067292,-0.11734,-0.11246,-0.017548,-0.01297,0.069429,0.056611
-0.07187,0.018463,-0.086824,-0.086824,-0.021515,0.0086976,0.039216,0.063935
-0.038911,-0.058442,-0.031891,-0.066377,-0.0096132,0.0206,0.026703,0.077363
-0.038605,-0.080415,-0.0074769,-0.075532,-0.00076295,-0.0035096,0.030976,0.062104
-0.027314,-0.088655,-0.0047303,-0.060883,-0.0047303,0.0083925,0.034333,0.070344
-0.02121,-0.095674,0.013581,-0.054475,0.013275,0.016327,-0.015717,0.043183
-0.019074,-0.074922,0.015717,-0.033112,0.035248,0.023346,-0.033417,0.0096132
0.009308,-0.086519,-0.011749,-0.034333,0.034333,0.022126,-0.030365,-0.0068666
0.036164,-0.077974,-0.042573,-0.037079,0.021515,0.034028,0.037079,-0.014191
0.060578,-0.056306,-0.039826,-0.061189,0.051423,0.013886,0.093538,-0.0044251
0.049287,-0.034638,-0.046235,-0.060578,0.069123,-0.016022,0.024262,-0.055085
0.04715,-0.095979,-0.082856,-0.066377,0.044099,0.010224,0.0016785,-0.10239
0.0071717,-0.023346,-0.11856,-0.11856,0.043183,0.022431,0.027314,-0.10025
-0.064546,0.044099,-0.12619,-0.12192,0.0038148,0.00045777,0.04715,-0.070954
-0.10239,0.061799,-0.11643,-0.11582,-0.032807,0.010224,0.06363,-0.014801
-0.099031,0.043488,-0.11337,-0.11521,-0.044709,-0.0086976,0.021515,0.031891
-0.10758,0.048371,-0.10513,-0.091402,-0.041352,-0.032807,-0.1738,0.065461
-0.087434,0.0035096,-0.052644,-0.075532,-0.028229,-0.016327,-0.13596,0.077974
-0.059358,-0.012665,-0.046845,-0.070344,-0.011444,0.0047303,0.030976,0.087739
-0.0047303,-0.049897,-0.036469,-0.082856,-0.0065614,0.00045777,0.068208,0.053864
0.027619,-0.089876,-0.01236,-0.065156,0.0047303,-0.015717,0.027008,0.047761
0.056001,-0.13382,0.018769,-0.04715,0.010529,0.005951,0.0099184,0.032807
0.071565,-0.13382,0.016327,-0.046235,0.015717,0.051423,0.033417,-0.024872
0.033112,-0.10544,0.0074769,-0.061189,0.0383,0.045014,0.034333,-0.043793
0.013275,-0.094148,-0.005951,-0.043183,0.023651,0.042573,0.028229,-0.029755
-0.0032044,-0.082856,-0.030976,-0.035554,0.035859,0.033417,0.031891,-0.046845
-0.040436,-0.058442,-0.058442,-0.064851,0.073701,0.015412,0.00076295,-0.069429
-0.059968,-0.059358,-0.078279,-0.077363,0.052033,0.016022,-0.018769,-0.069429
-0.069734,-0.026398,-0.11154,-0.091707,0.014801,-0.0053407,-0.022736,-0.041352
-0.087739,0.017243,-0.10636,-0.095369,0.0035096,-0.014801,0.014191,0.0065614
-0.077668,0.045624,-0.11276,-0.092927,-0.0068666,-0.0071717,-0.0028992,0.041962
-0.057527,0.0383,-0.12314,-0.10544,-0.013275,-0.027008,-0.13962,0.029145
-0.070954,0.032502,-0.11032,-0.11124,-0.012055,-0.034943,-0.049592,0.036164
-0.084382,0.079194,-0.098116,-0.121,-0.026398,-0.018158,0.093538,0.060578
-0.065461,0.10788,-0.088655,-0.11032,-0.038911,-0.0038148,0.015106,0.080415
-0.067903,0.022431,-0.04654,-0.085298,-0.052949,0.027924,0.042878,0.079194
-0.040742,-0.12222,0.0022889,-0.057527,-0.041962,0.039216,0.074006,0.10605
-0.018463,-0.15,-0.0062562,-0.052644,0.0016785,0.0383,0.073701,0.092012
0.019074,-0.12558,0.015412,-0.028534,0.027924,0.053559,0.072175,0.070344
0.044099,-0.10697,-0.0077821,-0.03006,0.043488,0.053254,0.070649,0.012665
0.0795,-0.11398,-0.0019837,-0.031281,0.059968,0.038911,0.070344,-0.0035096
0.066377,-0.05478,-0.053254,-0.053559,0.071565,0.017853,0.026093,0.0065614
0.067292,-0.088045,-0.040436,-0.053254,0.061494,-0.0077821,-0.043183,-0.049592
0.023651,-0.081941,-0.0016785,-0.046845,0.048981,-0.025788,-0.060578,-0.11154
-0.035554,-0.033417,-0.094453,-0.091402,0.071565,-0.048066,-0.066682,-0.11704
-0.048676,-0.0028992,-0.083162,-0.095064,0.035248,-0.022126,-0.040742,-0.044709
-0.097505,0.038605,-0.098116,-0.10513,-0.0083925,0.014801,0.0032044,0.0056458
-0.11551,0.078279,-0.099641,-0.10971,-0.017243,0.013886,0.0090028,0.0090028
-0.10727,0.073396,-0.12833,-0.092317,-0.051728,0.023957,0.010529,0.027924
-0.10178,0.058747,-0.12161,-0.12131,-0.052644,-0.0050355,0.087739,0.050202
-0.091096,0.060273,-0.11093,-0.12528,-0.041657,-0.0010681,0.18082,0.082856
-0.041352,-0.0028992,-0.086213,-0.10117,-0.048371,0.019989,0.15915,0.081331
-0.037385,-0.043488,-0.049897,-0.069734,-0.036469,-0.0016785,0.1323,0.03769
-0.0022889,-0.10575,-0.031891,-0.068818,-0.00045777,-0.035248,-0.50797,0.0068666
0.025177,-0.15702,-0.0068666,-0.062715,0.0013733,-0.0016785,-0.5864,0.0028992
0.051728,-0.17655,0.030365,-0.039521,0.0090028,0.070344,0.22507,0.009308
0.074006,-0.17227,0.036469,-0.020905,0.027314,0.086519,0.14145,-0.039521
0.018158,-0.073701,-0.00015259,-0.036164,0.03769,0.069734,0.2562,-0.072175
0.01297,-0.062104,-0.020294,-0.059358,0.054475,0.036774,0.12863,-0.081025
0.032197,-0.10178,-0.048371,-0.04654,0.054475,-0.0090028,-0.051118,-0.039216
0.00076295,-0.085603,-0.068513,-0.064546,0.063325,-0.097505,-0.25925,-0.045014
-0.02884,-0.025483,-0.10361,-0.066987,0.044404,-0.065156,-0.25193,-0.0056458
-0.057527,0.043183,-0.12222,-0.10636,0.024872,0.045319,0.34318,0.059052
-0.10513,0.076143,-0.10117,-0.10513,0.0071717,0.030365,0.33677,0.10575
-0.12131,0.091402,-0.082246,-0.12558,-0.014191,0.01297,0.19883,0.13016
-0.08835,0.09781,-0.099641,-0.11887,-0.030365,0.0071717,0.23301,0.055085
-0.066987,0.051728,-0.11673,-0.10361,-0.038911,-0.010224,-0.26932,-0.0047303
-0.068208,0.04715,-0.089265,-0.11154,-0.030976,-0.033722,-0.79911,-0.0065614
-0.065766,0.010529,-0.069429,-0.083772,-0.030976,0.023957,0.12192,0.049287
-0.025483,-0.052949,-0.026398,-0.065156,-0.034638,0.034638,0.21103,0.027619
0.0041199,-0.14023,0.023346,-0.034943,0.0019837,0.0053407,0.063935,0.027008
-0.0065614,-0.12345,0.00076295,-0.052338,0.039521,-0.0068666,0.068513,0.036774
0.0047303,-0.10666,0.0074769,-0.033722,0.027314,-0.0090028,0.015412,-0.016938
0.0090028,-0.11978,-0.00015259,-0.0090028,0.021515,0.038605,-0.02121,-0.056611
-0.002594,-0.084382,-0.022431,-0.12955,0.037995,0.068513,0.096895,-0.056611
-0.0096132,-0.076143,-0.036164,-0.075227,0.034943,0.034333,0.08835,-0.036469
-0.014191,-0.07248,-0.046845,-0.048981,0.016938,0.041352,0.048371,-0.010834
-0.0096132,-0.037385,-0.076143,-0.065766,0.02884,0.049592,0.060273,-0.0068666
0.045624,-0.02945,-0.10361,-0.082551,0.013886,0.02884,0.0071717,0.014191
0.0074769,-0.011749,-0.103,-0.074311,0.0019837,-0.098726,-0.029145,0.0074769
-0.044709,0.0074769,-0.11704,-0.084993,0.011444,-0.12161,-0.15274,-0.024567
-0.069734,0.026093,-0.12772,-0.12436,0.03006,-0.049897,-0.18082,0.0090028
-0.07187,0.031891,-0.1088,-0.11154,-0.015412,0.032502,0.27787,0.095369
-0.10239,0.061494,-0.10117,-0.098421,-0.035859,0.04654,0.2504,0.077363
-0.1091,0.073396,-0.099336,-0.10513,-0.033112,0.012665,0.11002,0.045319
-0.074617,-0.00076295,-0.037995,-0.077363,-0.041657,0.022431,-0.025788,0.066682
-0.048676,-0.050202,-0.0056458,-0.060883,-0.0035096,-0.016327,-0.4155,0.013886
-0.0047303,-0.094453,0.0065614,-0.050507,-0.0044251,0.040131,0.00076295,0.068513
0.029755,-0.13809,0.025788,-0.033722,0.00076295,0.02945,-0.010224,0.030365
0.022126,-0.10666,0.00045777,-0.036774,0.04593,-0.013886,-0.099641,-0.04593
0.032807,-0.12772,-0.01236,-0.034333,0.065156,0.0053407,0.1561,-0.050813
0.06302,-0.1384,-0.0019837,-0.048676,0.060578,0.027008,0.10178,-0.042878
0.0086976,-0.075532,-0.030671,-0.067597,0.048371,0.02945,0.029145,-0.079805
-0.016938,-0.034638,-0.084688,-0.068208,0.02945,0.0013733,-0.031586,-0.10422
-0.0062562,-0.034638,-0.098421,-0.078279,0.014191,0.025483,-0.047761,-0.083772
-0.03769,0.0044251,-0.11246,-0.086824,0.010834,0.032807,-0.022431,-0.069123
-0.076753,0.048371,-0.1033,-0.082551,0.019989,-0.015106,-0.0032044,0.00076295
-0.079805,0.066682,-0.13321,-0.12284,0.018769,-0.045014,0.050202,0.07187
-0.028229,0.045319,-0.10971,-0.11032,-0.02121,-0.011444,0.088045,0.15732
-0.056611,0.059968,-0.10819,-0.12528,-0.040436,-0.0038148,0.0016785,0.1442
-0.062104,0.030365,-0.091096,-0.10727,-0.041047,-0.005951,-0.031586,0.12192
-0.057832,-0.012055,-0.066072,-0.083162,-0.041657,-0.0080873,-0.037385,0.103
-0.038911,-0.043793,-0.034333,-0.078279,-0.016327,0.010529,-0.042573,0.062104
-0.036469,-0.056916,-0.013581,-0.073396,0.022126,0.034333,0.11795,0.017853
-0.041657,-0.066377,0.012055,-0.066377,0.026093,0.036469,0.10269,-0.027008
0.011139,-0.10575,-0.0065614,-0.041657,0.0096132,0.05539,0.081941,-0.039216
0.045624,-0.13046,0.016632,-0.0383,0.0032044,0.045014,0.041352,-0.10727
0.064546,-0.15152,0.0096132,-0.041657,0.019684,0.013275,-0.010834,-0.15061
0.078584,-0.17807,0.012055,-0.030671,0.037079,-0.0028992,0.019379,-0.094148
0.034333,-0.17502,-0.037995,-0.0383,0.045624,-0.016022,0.015717,-0.067292
-0.031891,-0.048371,-0.081331,-0.073701,0.039826,0.0047303,-0.0032044,-0.032807
-0.043183,-0.0044251,-0.08072,-0.088655,0.030976,0.0062562,0.02182,0.023041
-0.092927,0.079805,-0.11734,-0.10178,0.037385,-0.011749,-0.092927,0.055695
-0.084077,0.074006,-0.1268,-0.096895,0.020905,-0.022126,-0.1503,0.078279
-0.090181,0.070039,-0.13687,-0.12375,-0.0062562,-0.010834,0.0019837,0.087739
-0.10117,0.092012,-0.12436,-0.11643,-0.016327,-0.005951,0.065156,0.088045
-0.11063,0.068208,-0.10239,-0.093843,-0.036774,0.0099184,0.029755,0.12802
-0.097505,0.018463,-0.05417,-0.056306,-0.056916,0.014801,0.037079,0.071565
-0.082856,0.017243,-0.072175,-0.099336,-0.035554,0.024872,0.023041,0.011749
-0.044709,0.014496,-0.066377,-0.099641,-0.017243,0.047456,0.03769,0.041657
-0.0062562,-0.053864,-0.017853,-0.068208,-0.012665,0.044099,0.043793,0.044099
0.052338,-0.1323,0.034943,-0.0080873,0.0038148,0.014191,0.023651,0.0099184
0.024872,-0.11154,0.0062562,-0.037385,0.040436,0.0065614,0.0080873,-0.051423
0.054475,-0.14359,-0.00015259,-0.051423,0.066072,-0.014191,-0.012665,-0.087434
0.082551,-0.14481,-0.002594,-0.063325,0.05539,-0.0056458,0.0028992,-0.10239
0.053559,-0.16587,0.013275,-0.036774,0.054475,-0.0035096,-0.0035096,-0.08957
0.02121,-0.12436,-0.034638,-0.060273,0.061494,0.0038148,-0.010834,-0.057221
-0.024872,-0.053864,-0.085908,-0.082856,0.046235,0.014801,0.0065614,-0.041047
-0.01236,0.0086976,-0.13291,-0.11276,0.024262,0.014801,-0.0096132,-0.029755
-0.045624,0.083467,-0.12711,-0.12345,-0.0010681,0.026398,-0.018463,-0.048371
-0.083162,0.07126,-0.11551,-0.11185,-0.033112,0.036164,0.027619,-0.025483
-0.1207,0.08072,-0.13169,-0.12192,-0.048676,0.026703,0.03006,0.061799
-0.12833,0.05417,-0.096284,-0.121,-0.053864,-0.0056458,0.025483,0.11429
-0.10147,0.053254,-0.095064,-0.11337,-0.056611,0.0028992,0.05539,0.14389
-0.08835,0.034638,-0.062104,-0.087739,-0.044709,0.024872,0.068208,0.13321
-0.044709,-0.048676,-0.05417,-0.073396,-0.022736,0.0038148,0.025483,0.11093
-0.059968,-0.086824,-0.030365,-0.058442,-0.0028992,0.00045777,-0.0044251,0.084688
-0.012665,-0.1854,0.032197,-0.03769,0.010834,0.022126,-0.00045777,0.036164
0.027008,-0.15427,0.023957,-0.0065614,0.023651,0.0090028,0.0041199,-0.0053407
0.027924,-0.11185,-0.049287,-0.013581,0.059663,-0.009308,-0.034943,-0.060578
0.02182,-0.061494,0.0038148,-0.050507,0.084077,-0.02182,-0.040436,-0.079194
0.023651,-0.048371,-0.017548,-0.062409,0.053864,0.010224,-0.0074769,-0.051423
0.090791,-0.098726,-0.024872,-0.056611,0.034333,0.048676,0.030365,-0.057221
0.059052,-0.093843,-0.060883,-0.069734,0.039216,0.034028,0.10575,-0.074922
0.027924,-0.13138,-0.078889,-0.091402,0.023651,0.024872,0.076448,-0.061494
-0.014801,-0.0083925,-0.09659,-0.097505,0.025483,0.018158,-0.023346,-0.012055
-0.068818,0.092317,-0.15091,-0.10971,0.0080873,-0.044404,-0.17777,0.012055
-0.08957,0.086213,-0.15976,-0.1146,-0.0032044,-0.083162,-0.41276,0.01297
-0.081941,0.04593,-0.092317,-0.089265,-0.027008,0.010834,0.060578,0.077363
-0.093538,0.04715,-0.084688,-0.1146,-0.032197,0.009308,0.27359,0.10666
-0.103,0.031281,-0.08957,-0.121,-0.041352,-0.0074769,0.041352,0.12192
-0.072786,0.0035096,-0.04593,-0.095064,-0.039521,0.016632,0.090791,0.13413
-0.064546,0.0013733,-0.047761,-0.090791,-0.041047,0.032502,0.1323,0.10269
-0.0383,-0.052033,-0.023651,-0.075227,-0.031281,0.051728,0.16953,0.05417
-0.016938,-0.11887,-0.0080873,-0.051118,-0.027008,0.046235,0.20462,-0.024262
0.023041,-0.098726,-0.014496,-0.033112,0.0028992,0.0086976,0.10269,-0.059052
0.03769,-0.12558,0.069123,0.0032044,0.041047,0.019989,0.096895,-0.086824
0.010529,-0.12833,0.010834,-0.020294,0.068513,0.018769,-0.26871,-0.13535
0.0035096,-0.10666,-0.023651,-0.059052,0.077668,-0.019379,-0.7274,-0.11612
0.011444,-0.11856,-0.041962,-0.05417,0.05417,0.034028,0.16037,-0.048676
-0.019684,-0.015412,-0.086824,-0.082246,0.046235,0.016022,0.17319,-0.04654
-0.019074,0.049897,-0.12345,-0.10239,0.049897,-0.038911,-0.0086976,-0.018158
-0.035248,-0.012055,-0.10971,-0.10056,0.033417,-0.069123,-0.25101,0.002594
-0.066682,-0.011749,-0.12863,-0.12131,0.0068666,-0.029755,-0.084382,0.057527
-0.084382,0.029755,-0.11856,-0.095674,-0.019074,0.032807,0.2742,0.11063
-0.088045,0.067597,-0.098421,-0.11093,-0.041657,0.014496,0.10239,0.10849
-0.075532,0.053864,-0.085908,-0.12314,-0.025788,-0.017853,0.0038148,0.10605
-0.050813,0.025177,-0.077058,-0.087739,-0.035248,0.00015259,0.027314,0.066682
-0.041657,-0.0016785,-0.056611,-0.084993,-0.024262,-0.0038148,0.002594,0.030976
-0.036469,-0.019684,-0.052033,-0.072175,-0.010224,0.03006,0.027008,0.010529
0.013275,-0.075837,0.019684,-0.056611,-0.027008,0.079194,0.11002,0.024872
0.017548,-0.10544,-0.0022889,-0.049287,0.0041199,0.040131,0.03769,0.0032044
0.0053407,-0.11215,-0.00045777,-0.045319,0.040436,0.0099184,-0.00076295,-0.053254
0.024872,-0.11582,0.0022889,-0.036164,0.043488,-0.0016785,-0.015717,-0.036774
0.010834,-0.103,-0.019074,-0.051423,0.059968,-0.013886,-0.034638,-0.046845
0.025788,-0.094453,-0.024872,-0.056916,0.04593,0.0013733,0.029145,-0.071565
0.016938,-0.084077,-0.052949,-0.070344,0.031281,0.034333,0.042878,-0.040742
-0.0074769,-0.030671,-0.074617,-0.085298,0.027314,0.045319,0.04715,-0.043793
-0.020294,-0.040742,-0.076448,-0.084688,0.0086976,0.032197,0.05539,-0.040742
-0.034638,0.0096132,-0.10941,-0.072786,0.0068666,0.010834,0.048066,-0.013275
-0.061189,0.068513,-0.13565,-0.1146,0.0090028,-0.020294,0.0383,0.024872
-0.070039,0.056306,-0.095369,-0.11978,-0.025483,-0.005951,-0.019379,0.068513
-0.075837,0.002594,-0.092317,-0.10117,-0.039216,0.0071717,0.05539,0.056001
-0.060883,0.0383,-0.12467,-0.089876,-0.020905,0.002594,0.13596,0.079194
-0.07187,0.051728,-0.103,-0.10269,-0.010834,-0.025483,-0.30716,0.061189
-0.051423,-0.01297,-0.026093,-0.086824,-0.015412,-0.031586,-0.29038,0.085908
-0.018158,-0.050813,-0.016327,-0.068208,-0.024872,-0.0032044,0.22721,0.09659
-0.0090028,-0.11612,0.036469,-0.016327,0.009308,-0.073091,0.20462,0.040131
0.0013733,-0.11185,-0.0013733,-0.040742,0.034028,0.033417,0.25528,-0.00076295
0.0050355,-0.092317,-0.01236,-0.048676,0.05417,0.054475,0.15824,-0.049897
-0.0086976,-0.11429,0.0016785,-0.027619,0.058442,-0.0010681,-0.71427,-0.16617
-0.0019837,-0.11154,-0.023041,-0.044709,0.071565,0.012665,-0.33249,-0.10941
0.020905,-0.11795,-0.023957,-0.042573,0.065156,0.02121,0.3505,-0.013581
-0.0071717,-0.058442,-0.066377,-0.083467,0.042878,0.017853,0.0071717,0.02182
-0.039521,-0.028534,-0.082856,-0.1091,0.024262,0.023041,0.002594,0.066682
-0.11154,0.036164,-0.11612,-0.10513,-0.0010681,0.02121,0.084688,0.063325
-0.1442,0.070344,-0.12863,-0.11948,-0.026703,0.036164,0.05417,0.070649
-0.062104,0.039826,-0.12497,-0.08835,-0.048981,0.044709,0.10544,0.10971
-0.078889,0.082246,-0.12955,-0.11795,-0.029755,0.01297,0.12497,0.043183
-0.10697,0.095674,-0.1033,-0.13443,-0.026398,0.030365,0.14206,0.0206
-0.070039,0.029145,-0.096284,-0.10452,-0.056001,0.041657,0.097505,0.05417
-0.042573,-0.0062562,-0.065156,-0.093233,-0.050813,-0.012665,0.015717,0.06424
-0.024567,-0.027924,-0.040742,-0.083162,-0.0383,-0.013581,0.033112,0.07248
0.034333,-0.12345,0.023957,-0.029145,-0.011444,-0.019684,-0.0083925,0.019074
0.065766,-0.13413,0.028534,-0.023346,0.029145,-0.015717,-0.1442,-0.029145
0.051423,-0.11551,-0.0035096,-0.023651,0.055085,-0.013886,-0.073701,-0.055085
0.051728,-0.11673,-0.020294,-0.04654,0.076448,-0.011444,0.0065614,-0.091707
0.074311,-0.15274,0.022736,-0.059052,0.067903,0.023346,0.019379,-0.095674
0.074311,-0.14054,-0.0019837,-0.031586,0.051423,0.036469,0.0086976,-0.073091
0.031281,-0.093538,-0.034028,-0.048371,0.063935,0.010224,-0.016327,-0.086824
-0.013581,-0.030976,-0.094148,-0.089876,0.061799,-0.013886,0.0013733,-0.082246
-0.051423,0.0053407,-0.099336,-0.082856,0.012055,0.0032044,0.0010681,-0.040436
-0.095674,0.036469,-0.11826,-0.11368,-0.01236,0.011139,0.0013733,-0.01297
-0.099336,0.025483,-0.11826,-0.12528,-0.023651,0.00076295,0.0065614,0.020905
-0.093843,0.027619,-0.11368,-0.12039,-0.043793,0.019074,0.0035096,0.051423
-0.11826,0.064546,-0.11917,-0.10178,-0.036469,0.005951,0.0028992,0.082856
-0.12833,0.062409,-0.076753,-0.079194,-0.029755,-0.0016785,0.017548,0.10971
-0.11124,0.058137,-0.11246,-0.11978,-0.016938,0.012665,0.033112,0.13077
-0.072175,0.034028,-0.069429,-0.090486,-0.018158,0.0013733,0.026703,0.12436
-0.050813,-0.023957,-0.024872,-0.086824,-0.0019837,-0.0080873,0.013886,0.095674
0.0038148,-0.084688,-0.026703,-0.050813,0.00076295,0.040742,0.059358,0.073396
0.025177,-0.094148,0.0083925,-0.047456,0.023651,0.024872,0.088045,0.032197
0.035859,-0.10758,0.011444,-0.052338,0.04715,0.024567,0.053559,-0.012665
0.033417,-0.1384,0.002594,-0.048981,0.027314,0.0383,-0.0019837,-0.047761
0.056611,-0.14969,-0.0080873,-0.033417,0.0383,0.027008,-0.0074769,-0.076143
0.053559,-0.16007,-0.026703,-0.040131,0.032197,0.040131,0.065461,-0.075227
0.040131,-0.12253,-0.01297,-0.044709,0.045014,0.037385,0.14206,-0.098421
0.022126,-0.069429,-0.082856,-0.069734,0.061494,0.038911,0.09781,-0.069429
0.014191,-0.017548,-0.1033,-0.093843,0.023957,0.036164,-0.024262,-0.028229
-0.013275,0.031891,-0.11032,-0.093538,0.0032044,-0.030976,-0.23423,-0.00076295
-0.026703,0.067292,-0.12741,-0.10452,0.013886,-0.086519,-0.29831,0.035859
-0.036774,0.044404,-0.12833,-0.093538,-0.0032044,-0.017548,-0.17166,0.04715
-0.103,0.13077,-0.10544,-0.11154,-0.026398,0.031281,0.22324,0.070649
-0.12772,0.10422,-0.095064,-0.12131,-0.037079,0.0010681,0.21134,0.093538
-0.13169,0.065461,-0.077363,-0.11917,-0.030976,-0.040436,-0.032502,0.088045
-0.10636,0.019989,-0.051728,-0.072175,-0.025788,-0.025483,-0.11612,0.069429
-0.068818,-0.065766,-0.034943,-0.068513,-0.013581,0.0080873,-0.2034,0.061494
-0.018463,-0.11673,-0.0028992,-0.054475,0.016632,0.078584,0.22293,0.075227
0.026703,-0.13687,0.015717,-0.032502,0.034333,0.040742,0.25223,0.025177
0.043183,-0.17044,0.034028,-0.040436,0.029145,-0.0080873,-0.022736,-0.064546
0.035554,-0.18082,0.0044251,-0.035554,0.020905,0.027314,-0.00076295,-0.098421
0.014801,-0.10391,-0.023651,-0.044099,0.037995,0.005951,0.0035096,-0.084077
-0.0090028,-0.084077,-0.039216,-0.05417,0.039826,-0.010224,-0.041047,-0.066072
-0.032502,-0.052644,-0.081025,-0.078584,0.033722,0.034333,-0.0028992,-0.067903
-0.045014,-0.038911,-0.082246,-0.068513,0.025483,0.032502,0.029145,-0.059968
-0.039216,-0.025483,-0.092927,-0.069123,0.018158,0.0083925,0.0096132,-0.0035096
-0.079805,0.022736,-0.095979,-0.092927,0.036774,-0.012665,-0.027619,0.017853
-0.11063,0.095674,-0.1323,-0.13718,0.021515,-0.016327,-0.016327,0.05539
-0.11398,0.098726,-0.12497,-0.13779,-0.039216,0.010529,0.025483,0.11154
-0.091707,0.11765,-0.1088,-0.11521,-0.062715,0.025177,0.14054,0.12161
-0.034943,0.034028,-0.080415,-0.09781,-0.051118,0.0083925,0.20188,0.12833
-0.00045777,-0.03006,-0.070344,-0.057221,-0.039826,0.0206,0.20371,0.09659
0.0010681,-0.026093,-0.036774,-0.050507,-0.0028992,0.026093,0.17838,0.054475
0.027008,-0.1149,0.0071717,-0.040131,0.035248,-0.039826,-0.55802,-0.015717
0.025788,-0.13687,-0.0065614,-0.048371,0.030976,-0.034333,-0.57908,-0.010529
0.067597,-0.19364,0.010529,-0.030976,0.025483,0.018158,0.23178,-0.0068666
0.058442,-0.14084,0.002594,-0.058137,0.041047,0.028229,0.08957,-0.081331
0.041352,-0.12406,-0.016632,-0.055695,0.050202,0.018769,0.04654,-0.095064
0.039521,-0.094148,-0.017853,-0.033112,0.030976,0.034943,0.083467,-0.085298
0.024872,-0.073701,-0.032502,-0.026093,0.016022,0.0206,0.029755,-0.091402
-0.00015259,-0.036164,-0.074006,-0.099641,0.037385,-0.0035096,0.016022,-0.10391
-0.037385,0.017243,-0.095979,-0.14847,0.039216,-0.020905,0.0074769,-0.072175
-0.069429,0.04715,-0.12253,-0.11246,-0.0047303,0.0062562,0.013275,-0.014496
-0.081331,0.066682,-0.12863,-0.10727,-0.016327,0.0044251,0.012055,0.027619
-0.10391,0.058137,-0.12039,-0.11673,-0.015412,0.0010681,0.018769,0.060273
-0.14145,0.095674,-0.11429,-0.11856,-0.027619,-0.011444,0.052033,0.082856
-0.15152,0.073396,-0.096895,-0.11643,-0.025177,-0.01297,0.06363,0.095979
-0.095979,0.039216,-0.084993,-0.10117,-0.034333,0.034333,0.073396,0.1088
-0.049592,-0.040742,-0.036774,-0.06424,-0.041657,0.014496,0.037995,0.10452
-0.028534,-0.076143,-0.012665,-0.062715,-0.0053407,-0.023041,-0.098421,0.086213
-0.02121,-0.05417,-0.016327,-0.055695,0.01297,0.030365,-0.024872,0.063935
-0.0206,-0.085603,0.005951,-0.033112,0.0038148,0.061494,0.12192,0.032197
0.025788,-0.10483,-0.0080873,-0.042267,0.031891,0.023957,0.048981,-0.0022889
0.00076295,-0.11276,0.0022889,-0.050202,0.031281,0.034638,0.062409,-0.0056458
0.049897,-0.1445,0.024262,-0.059358,0.047761,0.052949,0.085298,-0.026703
0.080415,-0.14023,-0.049287,-0.046845,0.059358,0.059358,0.03769,-0.0056458
0.063935,-0.099947,-0.063935,-0.068818,0.043793,0.043488,-0.0068666,-0.078889
0.01297,-0.032502,-0.074922,-0.062409,0.035859,0.020294,-0.028229,-0.090181
-0.052033,-0.043793,-0.062715,-0.091402,0.041657,-0.026398,-0.056001,-0.053559
-0.096895,0.015717,-0.066987,-0.10117,0.043183,-0.053254,-0.026703,-0.015412
-0.12985,0.053559,-0.13962,-0.10452,0.0074769,-0.0068666,0.035248,0.028229
-0.1033,0.07187,-0.13107,-0.11521,-0.017548,-0.0080873,0.0056458,0.067597
-0.070649,0.074617,-0.078279,-0.089265,-0.016938,-0.020294,-0.0062562,0.091402
-0.050813,0.062715,-0.0972,-0.084382,-0.033722,-0.0074769,0.0086976,0.068513
-0.0065614,-0.011749,-0.083467,-0.059358,-0.022736,-0.0050355,-0.016632,0.052338
-0.0206,0.011444,-0.091096,-0.087434,-0.00015259,-0.021515,-0.052644,0.031586
-0.028229,-0.059358,-0.039216,-0.082856,0.00045777,0.010224,0.049897,0.037385
-0.00015259,-0.11582,0.026093,-0.075532,-0.011444,0.0383,0.061189,0.049287
0.023346,-0.14786,0.0083925,-0.044099,0.0032044,0.027314,-0.009308,0.023041
0.036164,-0.13565,-0.031891,-0.048981,0.032807,0.019379,0.03769,-0.016938
0.029145,-0.11887,0.0099184,-0.030365,0.05539,0.0041199,0.059968,-0.053254
0.037385,-0.12589,-0.014801,-0.047456,0.050507,0.018769,0.069734,-0.08011
0.033722,-0.087434,-0.02884,-0.055085,0.048371,0.026093,0.10483,-0.10727
-0.011139,-0.016938,-0.063325,-0.09781,0.047761,0.0071717,-0.19821,-0.1091
-0.046845,-0.026398,-0.088655,-0.092927,0.0080873,0.022126,-0.26658,-0.074006
-0.08835,0.023957,-0.11093,-0.099336,-0.018158,0.037079,0.12833,-0.0013733
-0.078279,0.050202,-0.12619,-0.11887,-0.014801,0.00045777,-0.072175,0.026703
-0.06363,0.048066,-0.15061,-0.093233,-0.041047,-0.063935,-0.067597,0.07248
-0.023041,0.01236,-0.035554,-0.033417,-0.0028992,-0.062104,0.08072,0.11795
-0.049897,0.023346,-0.087129,-0.090486,0.065461,0.018158,0.078279,0.08835
-0.099336,0.042573,-0.11521,-0.14206,0.024872,0.01297,-0.05478,0.091707
-0.070954,0.00015259,-0.064851,-0.11368,-0.053254,0.047456,0.09659,0.12528
-0.096895,0.0056458,-0.044099,-0.072786,-0.057832,0.048676,0.1146,0.10178
-0.077363,-0.042878,-0.019989,-0.076448,-0.028534,0.031281,0.078584,0.070649
-0.023346,-0.070649,-0.0086976,-0.061799,-0.014496,0.041047,0.065461,0.049287
0.028229,-0.12192,0.0032044,-0.033112,0.0035096,0.058137,0.082551,0.027619
0.04715,-0.14389,0.018158,-0.022126,0.041047,0.034333,0.023346,-0.056001
0.029755,-0.11582,-0.018769,-0.040742,0.06302,-0.005951,-0.023651,-0.085603
0.030976,-0.12436,0.0086976,-0.042573,0.0795,-0.035248,-0.026398,-0.049592
0.019379,-0.16587,-0.023651,-0.060273,0.050507,-0.0086976,-0.014801,-0.048981
-0.012665,-0.067597,-0.075227,-0.089265,0.037995,0.015412,-0.0028992,-0.077058
-0.028229,0.0083925,-0.11337,-0.093538,0.017548,0.01236,0.0013733,-0.045624
-0.063325,0.048066,-0.121,-0.091402,-0.0044251,0.011139,-0.0074769,0.012055
-0.059968,0.031586,-0.1323,-0.10788,-0.035859,0.024567,0.017548,0.041962
-0.077363,0.033722,-0.1323,-0.11093,-0.043488,0.023041,0.040131,0.023346
-0.09781,0.12345,-0.1384,-0.12192,-0.037079,0.0206,0.031891,0.028229
-0.065766,0.10025,-0.090791,-0.097505,-0.035554,0.019989,-0.0083925,0.049897
-0.050813,0.043488,-0.060883,-0.069429,-0.020294,-0.018158,-0.030976,0.018769
-0.036469,0.011139,-0.039826,-0.078889,0.0016785,-0.087129,-0.11582,0.037995
-0.035554,-0.034943,-0.023651,-0.070344,0.011444,-0.027008,-0.063935,0.053559
-0.031586,-0.062715,-0.016327,-0.062715,0.027924,0.012665,0.084688,0.050202
0.015717,-0.10544,0.017853,-0.060578,0.029755,-0.018158,0.060578,0.042878
0.03006,-0.14298,-0.00015259,-0.034638,0.027924,0.058137,0.087739,0.0074769
0.02884,-0.16739,0.018769,-0.0383,0.045319,0.034943,0.046235,-0.051423
0.03006,-0.13474,0.0071717,-0.039216,0.043793,0.014496,-0.019074,-0.044709
0.046235,-0.085908,-0.023041,-0.055085,0.056306,0.0206,-0.040436,-0.041352
0.033722,-0.071565,-0.052644,-0.051728,0.06363,0.0028992,-0.043793,-0.071565
0.0077821,-0.052338,-0.078584,-0.066987,0.038911,-0.010834,0.00045777,-0.078889
-0.0028992,-0.028229,-0.10727,-0.099947,0.024872,0.017853,0.17685,-0.028229
-0.026398,-0.002594,-0.11734,-0.11734,0.010529,0.051423,0.28153,0.015717
-0.030671,0.015412,-0.12711,-0.11704,-0.011444,0.002594,0.26444,0.043183
-0.047456,0.012665,-0.10941,-0.10483,-0.035859,-0.049897,-0.1268,0.030976
-0.082856,0.016632,-0.099336,-0.10575,-0.026398,-0.094453,-1.0698,-0.027314
-0.10361,0.027924,-0.10941,-0.092927,-0.019379,-0.01297,-0.11032,0.0383
-0.076753,0.1033,-0.079194,-0.084688,-0.030976,0.050507,0.29862,0.075227
-0.074617,0.0383,-0.044709,-0.086824,-0.021515,0.014496,0.037995,0.049287
-0.042878,-0.042573,-0.023041,-0.068208,-0.026703,0.032502,0.16251,0.050507
-0.044404,-0.092927,0.016632,-0.036469,-0.019074,0.043488,0.10758,0.052949
-0.024262,-0.10971,0.012055,-0.033112,0.02121,0.045014,0.03006,0.066377
-0.0028992,-0.10178,-0.0028992,-0.049287,0.061189,0.046235,0.033417,0.056611
0.0074769,-0.11032,-0.0016785,-0.064546,0.059358,0.034638,0.031281,0.023957
-0.00076295,-0.12284,-0.024567,-0.07248,0.037385,0.050202,0.090486,0.005951
-0.015717,-0.063325,-0.031891,-0.076448,0.023651,0.050202,0.10361,-0.044404
-0.035554,-0.049592,-0.065156,-0.070649,0.030976,0.042267,0.12406,-0.02121
-0.022431,0.00015259,-0.10025,-0.078584,0.016938,0.058747,0.11521,0.0206
-0.027314,-0.02884,-0.059968,-0.079194,0.012665,0.060273,0.058137,0.025788
-0.053559,-0.02884,-0.049897,-0.076448,0.0096132,0.02121,-0.045624,0.0010681
-0.024567,-0.036774,-0.11978,-0.073701,-0.014801,-0.0047303,-0.016938,-0.0028992
-0.031586,0.047761,-0.15915,-0.11582,0.0010681,-0.019379,0.17655,0.0016785
-0.055085,0.093538,-0.12711,-0.13199,-0.0083925,-0.033417,0.0056458,0.019989
-0.077058,0.1091,-0.12375,-0.11032,-0.040436,-0.04654,-0.1564,0.035859
-0.028534,0.015412,-0.056001,-0.095369,-0.035859,-0.086213,-0.41154,0.030365
-0.017548,-0.043488,-0.038911,-0.06424,-0.0080873,-0.025483,-0.21897,0.009308
-0.013581,-0.066377,-0.019074,-0.073701,0.0047303,0.036164,0.19333,0.0080873
0.062104,-0.11826,-0.0053407,-0.038605,0.0099184,0.013886,0.042267,-0.00015259
0.11429,-0.14481,0.041962,-0.018158,0.028229,0.022736,0.039826,-0.020905
0.091707,-0.16281,0.048066,-0.0047303,0.053864,0.0077821,0.030976,-0.064546
0.017243,-0.11734,-0.027619,-0.053254,0.080415,-0.017243,-0.0050355,-0.081636
-0.01297,-0.1088,-0.067292,-0.062715,0.058137,0.01236,-0.0010681,-0.041047
-0.023346,-0.1146,0.0016785,-0.045319,0.02884,0.031281,0.034028,-0.021515
-0.08011,-0.034943,-0.079194,-0.070954,0.053254,0.016632,0.16129,-0.031586
-0.085908,0.0077821,-0.10605,-0.10452,0.031281,0.012055,0.21927,0.0077821
-0.10819,0.062104,-0.12467,-0.1091,0.02121,-0.01297,0.20371,0.0077821
-0.11246,0.067597,-0.13046,-0.084993,-0.01236,0.016022,0.017243,-0.0022889
-0.10361,0.081331,-0.15122,-0.16251,-0.038605,-0.011444,-0.81529,-0.0019837
-0.082246,0.042267,-0.10147,-0.14298,-0.02121,-0.011444,-0.25986,0.049287
-0.1207,0.042573,-0.074006,-0.090486,-0.031586,0.014801,0.29007,0.091707
-0.13077,0.043488,-0.082551,-0.096895,-0.024872,-0.0047303,0.089876,0.11276
-0.086213,0.023957,-0.077363,-0.076753,-0.036469,0.012665,0.11429,0.11856
-0.039521,0.035859,-0.034943,-0.066377,-0.041047,0.035248,0.10636,0.094148
0.0065614,-0.053864,0.026398,-0.029145,-0.0083925,0.030365,0.084688,0.071565
0.013886,-0.17288,0.028534,-0.053559,0.019074,0.031281,0.061189,0.057527
0.052949,-0.20768,0.0077821,-0.050507,0.027924,0.024567,0.05417,0.052949
0.073396,-0.14023,-0.0028992,-0.037385,0.046845,0.023041,0.047761,0.0038148
0.058442,-0.1268,-0.00076295,-0.050813,0.060578,0.0010681,0.018769,-0.063935
0.064546,-0.11154,-0.026398,-0.040742,0.059358,0.0062562,0.0032044,-0.099031
0.04593,-0.070039,-0.04715,-0.059358,0.049287,-0.0032044,0.021515,-0.099641
-0.0010681,-0.034638,-0.084382,-0.078584,0.029145,-0.0035096,-0.0044251,-0.045319
-0.056611,0.019684,-0.11246,-0.10758,0.010529,0.012055,-0.068208,-0.016327
-0.053254,0.038605,-0.11246,-0.099031,-0.012055,0.041352,0.076143,0.0071717
-0.084993,0.059358,-0.10758,-0.088655,-0.015717,0.010834,0.057527,0.015412
-0.099947,0.074311,-0.12039,-0.11856,-0.015717,0.002594,-0.085603,-0.028229
-0.095979,0.055085,-0.10513,-0.12314,-0.024262,0.013275,0.0038148,-0.0041199
-0.09781,-0.0016785,-0.078279,-0.095369,-0.035859,0.013275,0.11398,0.029145
-0.051118,-0.024872,-0.091096,-0.084993,-0.03769,-0.011139,0.097505,0.070039
-0.010224,-0.050813,-0.077363,-0.095064,-0.023041,-0.033417,0.074311,0.11765
-0.024872,-0.019684,0.0080873,-0.048371,0.0053407,-0.01297,-0.22721,0.045014
-0.009308,-0.060273,0.0022889,-0.046845,0.037995,-0.00015259,-0.2855,0.055085
0.065461,-0.13016,0.013581,-0.046235,0.049592,0.040131,0.20981,0.10483
0.088655,-0.17044,0.01236,-0.036164,0.056306,0.02945,0.12284,0.031586
0.035554,-0.15549,-0.0047303,-0.049287,0.066682,-0.013275,-0.12161,-0.041352
-0.0090028,-0.096895,-0.028229,-0.042267,0.045624,0.034028,-0.052949,-0.06302
-0.0065614,-0.07187,-0.02182,-0.063325,0.037385,-0.0383,0.022126,-0.065156
-0.0056458,-0.090791,-0.032807,-0.058442,0.039216,-0.054475,-0.035859,-0.076143
-0.024872,-0.025483,-0.090181,-0.08072,0.025788,0.052644,0.040436,-0.08835
-0.065766,0.058137,-0.13291,-0.10788,0.011444,0.025177,0.047456,-0.062104
-0.065766,0.063935,-0.12772,-0.095674,-0.0053407,0.023041,0.041047,-0.023651
-0.053254,0.038605,-0.098726,-0.099641,-0.010834,0.034028,0.062409,0.043183
-0.10239,0.081941,-0.12741,-0.11276,-0.019684,0.028534,0.02182,0.06363
-0.099641,0.058442,-0.1088,-0.1146,-0.053559,0.034943,0.0016785,0.10666
-0.091707,0.039521,-0.10636,-0.11368,-0.057832,0.0019837,-0.040742,0.11307
-0.090181,0.011749,-0.087129,-0.098726,-0.035554,-0.0019837,-0.075532,0.078584
-0.039216,-0.0062562,-0.042573,-0.062715,-0.036774,0.031586,0.051423,0.083772
-0.014496,-0.066377,0.00045777,-0.057221,0.009308,0.0068666,0.085298,0.036774
0.023957,-0.1323,0.052033,-0.028229,0.039521,-0.0071717,0.031891,0.013886
0.023651,-0.13077,-0.0038148,-0.042878,0.049897,0.015412,0.035248,-0.0035096
0.0383,-0.11856,0.0038148,-0.041352,0.045624,0.016938,0.017548,-0.033722
0.036164,-0.11185,-0.010224,-0.055085,0.039521,0.0090028,-0.0068666,-0.032502
0.04654,-0.094453,-0.020905,-0.048371,0.040131,0.010224,0.0038148,-0.057832
0.037995,-0.092317,-0.050507,-0.064546,0.040131,0.014496,-0.013581,-0.064546
0.0016785,-0.056916,-0.082856,-0.085603,0.031891,0.015106,-0.015412,-0.055695
-0.0050355,-0.031586,-0.064546,-0.070954,0.0074769,0.016327,0.019379,-0.051118
-0.0383,-0.0053407,-0.084382,-0.056916,0.0041199,0.019379,0.010529,-0.038605
-0.084993,0.06363,-0.14389,-0.11887,0.019074,-0.0041199,-0.0074769,-0.016938
-0.10178,0.072175,-0.13077,-0.12955,-0.00076295,0.0032044,0.0090028,0.030365
-0.11002,0.081331,-0.103,-0.11734,-0.02884,0.02121,0.069123,0.072175
-0.13169,0.074311,-0.10941,-0.1033,-0.03769,0.021515,0.086824,0.085298
-0.098116,0.0062562,-0.097505,-0.095369,-0.028534,0.0071717,0.070649,0.11582
-0.033112,-0.054475,-0.023651,-0.057527,-0.023041,-0.016327,0.04654,0.15152
-0.027008,-0.026093,-0.030976,-0.093233,-0.016632,-0.0383,-0.22751,0.092317
-0.030976,-0.027619,-0.019684,-0.079805,-0.0083925,0.016938,-0.15488,0.035248
-0.042878,-0.053559,0.010224,-0.062409,-0.012055,0.045624,0.15702,0.025177
0.0096132,-0.10758,0.0096132,-0.048371,0.0032044,0.040436,0.059052,0.018769
0.076448,-0.19791,0.024262,-0.019379,0.020905,0.034638,0.033417,-0.0019837
0.07248,-0.19272,-0.0077821,-0.025483,0.059968,0.015106,-0.0090028,-0.13779
0.039216,-0.094453,0.023957,-0.0206,0.065156,0.017853,-0.051118,-0.16892
0.067597,-0.12863,-0.045014,-0.031586,0.048371,0.0080873,0.0090028,-0.11215
0.029755,-0.062409,-0.10483,-0.10513,0.075227,-0.04654,-0.002594,-0.11643
-0.020905,0.02121,-0.12619,-0.094453,0.027008,0.0065614,0.0071717,-0.06363
-0.043793,0.055695,-0.092317,-0.096895,-0.0032044,0.0077821,-0.050507,0.016632
-0.059968,0.052644,-0.12284,-0.11948,0.0077821,-0.059052,-0.11215,0.083772
-0.10178,0.070649,-0.11215,-0.11643,-0.0068666,-0.039826,0.0047303,0.12009
-0.11429,0.060273,-0.11337,-0.11063,-0.039521,0.0013733,-0.0090028,0.13077
-0.099947,0.06424,-0.11307,-0.091707,-0.052949,0.023346,0.024262,0.1445
-0.081941,0.029755,-0.082246,-0.079194,-0.019074,0.0010681,0.13077,0.085603
-0.047761,-0.018463,-0.061799,-0.08835,-0.0068666,0.019379,0.12924,0.038911
-0.043183,-0.052949,-0.029145,-0.085298,0.0086976,0.045319,0.058442,0.016632
-0.012055,-0.094759,-0.023041,-0.05539,0.015412,0.049592,0.077363,0.041352
0.0056458,-0.094453,0.020905,-0.040742,0.043183,0.013886,0.0032044,-0.012055
0.031586,-0.14603,0.034638,-0.027008,0.03769,0.013886,-0.0206,-0.073701
0.047456,-0.18204,0.026093,-0.032807,0.039521,0.013886,0.02945,-0.083162
0.012055,-0.061799,-0.037079,-0.040436,0.057221,0.0099184,-0.018769,-0.050813
0.02182,-0.059663,-0.038911,-0.047761,0.038911,0.044404,0.095369,-0.0044251
0.011139,-0.036469,-0.062104,-0.066987,0.024262,0.050202,0.17136,-0.022431
-0.027314,-0.034028,-0.092012,-0.095674,0.049592,-0.016022,0.1564,-0.034943
-0.052644,0.017243,-0.12039,-0.10117,0.029145,-0.011749,0.090486,-0.02121
-0.069429,0.030671,-0.12741,-0.11276,-0.0065614,-0.025177,-0.67491,-0.06302
-0.069123,0.021515,-0.11612,-0.11582,-0.021515,-0.0086976,-0.4799,0.016938
-0.099641,0.073396,-0.11704,-0.13291,-0.050507,0.028534,0.23636,0.076753
-0.087129,0.048676,-0.092927,-0.087434,-0.060883,0.015412,0.14328,0.059663
-0.070954,0.017243,-0.10422,-0.095674,-0.058747,0.014496,0.26017,0.098726
-0.045319,-0.011444,-0.025483,-0.12802,-0.019074,-0.0038148,0.21866,0.076448
-0.019379,-0.040436,-0.04654,-0.085908,-0.013581,0.00076295,0.19089,0.077668
0.00076295,-0.049897,-0.03006,-0.060883,-0.0096132,-0.0074769,-0.30533,0.026703
0.013581,-0.092927,0.020294,-0.042878,-0.00076295,-0.020294,-0.70268,0.024872
0.034028,-0.11429,0.00076295,-0.020294,0.019684,0.027314,0.16678,0.055085
0.045319,-0.1149,-0.017853,-0.050202,0.047456,0.024567,0.17136,-0.018769
0.029755,-0.10544,-0.0035096,-0.040742,0.052949,0.015106,0.081331,-0.06302
0.019379,-0.11154,-0.026093,-0.048676,0.039216,0.035554,0.11063,-0.08011
0.073701,-0.13809,-0.022126,-0.028534,0.028229,0.041047,0.068513,-0.077363
0.086519,-0.103,0.0035096,-0.010834,0.039521,0.014191,0.081941,-0.085603
-0.0013733,-0.0016785,-0.092622,-0.082246,0.062409,-0.027924,-0.023651,-0.10025
-0.10239,0.037995,-0.13565,-0.11582,0.034333,-0.01297,-0.10178,-0.067292
-0.12772,0.085908,-0.13901,-0.13046,0.0041199,0.0068666,0.031891,-0.033417
-0.12985,0.084688,-0.14298,-0.12161,-0.010834,-0.019379,0.005951,-0.0065614
-0.12955,0.080415,-0.10117,-0.12436,-0.033722,-0.014191,0.02121,0.065766
-0.13535,0.050507,-0.098116,-0.1146,-0.045014,-0.013275,0.066377,0.11154
-0.103,0.036164,-0.092012,-0.14054,-0.045014,-0.010224,0.092317,0.1265
-0.063935,-0.0086976,-0.04654,-0.083467,-0.028229,-0.0086976,0.050507,0.14237
-0.026703,-0.05539,-0.025483,-0.067597,-0.027619,0.029145,0.047456,0.14939
-0.0096132,-0.10941,-0.0080873,-0.055695,-0.014496,0.05539,0.031281,0.12589
-0.0041199,-0.08011,0.0056458,-0.046235,0.0086976,0.040742,-0.00015259,0.08072
0.018158,-0.075837,-0.0038148,-0.028229,0.029755,0.029145,0.010834,0.002594
0.039521,-0.16739,0.023957,-0.012665,0.058442,0.0090028,0.021515,-0.050507
0.020294,-0.13138,-0.021515,-0.028534,0.069123,-0.029145,-0.097505,-0.093233
-0.0065614,-0.11398,0.0035096,-0.036164,0.07126,-0.028229,-0.12985,-0.084077
-0.010224,-0.073701,-0.044709,-0.061799,0.048371,0.022126,0.025483,-0.062104
-0.011139,-0.027924,-0.078279,-0.091402,0.051118,0.0065614,0.049592,-0.06363
-0.0068666,0.011749,-0.10208,-0.10727,0.0206,0.010529,0.045624,0.017853
-0.055085,0.051118,-0.13321,-0.1091,-0.016938,0.01236,0.021515,0.038911
-0.057832,0.043793,-0.12131,-0.1033,-0.019074,0.0047303,0.038911,0.034028
-0.070649,0.017853,-0.11978,-0.12131,-0.017243,0.018463,0.088655,0.066682
-0.069123,-0.016327,-0.11154,-0.11673,-0.023346,0.013275,0.095369,0.065156
-0.054475,0.051118,-0.1088,-0.11337,-0.046845,-0.0013733,0.11673,0.053559
-0.053864,0.03006,-0.067292,-0.0972,-0.045624,-0.01297,-0.091096,-0.013275
-0.043183,-0.016022,-0.036469,-0.076753,-0.035554,0.013886,-0.24918,-0.032807
-0.01297,-0.059663,-0.00045777,-0.065766,-0.016632,0.06302,0.30594,0.0206
0.04654,-0.084993,-0.0022889,-0.049287,-0.0065614,0.048676,0.089876,0.056001
0.046235,-0.11246,0.009308,-0.039521,0.037385,-0.027924,-0.1912,0.061494
0.049287,-0.070954,-0.0035096,-0.039521,0.058137,-0.069734,-0.3624,0.035554
0.04654,-0.12619,-0.0074769,-0.036164,0.045319,0.024872,-0.2678,-0.032502
0.02182,-0.12589,-0.023957,-0.048371,0.051118,0.10056,0.26505,-0.072175
0.034943,-0.12406,-0.029145,-0.05539,0.043183,0.035248,0.11429,-0.052644
0.0016785,-0.061494,-0.066682,-0.079194,0.034943,0.027314,0.056001,-0.066072
-0.029145,-0.027619,-0.069429,-0.085298,0.038911,0.024872,0.070039,-0.075227
-0.08072,0.0016785,-0.091096,-0.073091,0.0080873,0.020905,0.026093,-0.066072
-0.051118,0.017548,-0.11276,-0.083772,0.0010681,0.0041199,0.023346,-0.026703
-0.053559,0.057527,-0.13107,-0.10544,0.0038148,-0.016022,-0.0056458,0.009308
-0.095369,0.061799,-0.12955,-0.11765,-0.0068666,-0.032807,-0.041352,0.041352
-0.099947,0.057527,-0.1033,-0.10178,-0.024567,-0.097505,-0.049287,0.067597
-0.11246,0.066682,-0.10483,-0.11093,-0.035248,-0.05539,-0.019074,0.046845
-0.11307,0.053864,-0.080415,-0.090791,-0.042878,0.080415,0.094453,0.036774
-0.060883,-0.058137,-0.010224,-0.067597,-0.035248,0.068818,0.15244,0.069734
-0.0383,-0.13962,-0.0056458,-0.064851,-0.0074769,0.037079,0.11063,0.083467
-0.010834,-0.088045,0.0022889,-0.048676,0.016938,-0.0050355,0.034028,0.049592
0.0077821,-0.095674,0.009308,-0.046845,0.027619,-0.024262,-0.15274,-0.0062562
0.043488,-0.13382,0.0071717,-0.033112,0.035859,0.018463,-0.25589,-0.019684
0.045624,-0.11582,-0.032502,-0.059052,0.037079,0.04715,0.07126,-0.01297
0.025177,-0.11673,-0.028534,-0.044404,0.039521,0.02884,0.033112,-0.0795
0.050507,-0.1384,-0.046845,-0.062409,0.043488,0.0022889,-0.02945,-0.057221
0.039826,-0.079805,-0.086519,-0.063325,0.039521,0.002594,0.040131,0.0019837
0.011139,-0.018158,-0.07248,-0.067597,0.031281,-0.0041199,0.098726,0.016938
-0.047761,0.04654,-0.082246,-0.08835,0.034028,-0.024872,0.0080873,-0.0044251
-0.11337,0.074617,-0.13748,-0.11643,0.014191,-0.00015259,0.0086976,0.0050355
-0.094453,0.054475,-0.10758,-0.11063,-0.012665,0.002594,0.045624,0.055695
-0.12406,0.063935,-0.11032,-0.10117,-0.0071717,-0.016327,0.022736,0.090791
-0.11795,0.050507,-0.085908,-0.10086,-0.0022889,-0.0013733,0.059968,0.066072
-0.11856,0.088655,-0.11704,-0.093538,-0.039521,0.02945,0.081331,0.061799
-0.08011,0.059358,-0.062104,-0.08896,-0.034333,0.016938,0.075532,0.074311
-0.034943,0.015106,-0.034638,-0.0795,-0.030671,0.0010681,0.027924,0.069734
0.019074,-0.051423,-0.012665,-0.060273,-0.024262,-0.0035096,-0.081025,0.051423
0.057527,-0.1146,0.0071717,-0.044709,-0.014496,0.033112,-0.044709,0.019684
0.086824,-0.17563,-0.0074769,-0.040131,0.017853,0.044404,0.041352,-0.012665
0.091707,-0.21042,0.0083925,-0.055695,0.05539,0.0038148,-0.033112,-0.025483
0.074617,-0.1857,0.027924,-0.034638,0.0383,0.019379,-0.021515,-0.065766
0.08011,-0.2208,0.0047303,-0.040131,0.029755,0.025483,-0.017548,-0.10971
0.032807,-0.077668,-0.056611,-0.06424,0.050507,-0.026398,-0.094148,-0.13199
-0.015412,-0.0083925,-0.068208,-0.090486,0.053254,-0.019379,-0.056001,-0.12314
-0.075837,0.040742,-0.11276,-0.096284,0.041962,-0.02182,-0.016632,-0.086213
-0.1146,0.076448,-0.1268,-0.12161,-0.00015259,0.016327,0.035248,-0.042573
-0.11704,0.073396,-0.12772,-0.10575,-0.024872,0.024872,0.094148,0.035859
-0.11917,0.075837,-0.1207,-0.11185,-0.018769,-0.0038148,0.11673,0.1091
-0.12131,0.10361,-0.1384,-0.12528,-0.022126,0.016022,0.07126,0.098726
-0.10636,0.057832,-0.099336,-0.096284,-0.0383,0.011444,-0.010834,0.085298
-0.083162,0.009308,-0.061799,-0.081025,-0.035859,0.002594,-0.0074769,0.085908
-0.02884,-0.025788,-0.018769,-0.043488,-0.0062562,0.0013733,-0.0053407,0.096895
0.00076295,-0.05539,-0.034638,-0.07126,0.0090028,0.0062562,0.002594,0.08011
0.013275,-0.091707,0.0044251,-0.054475,-0.0083925,0.018158,0.031586,0.033722
0.017853,-0.13748,0.015717,-0.049592,0.015412,0.0041199,0.020294,0.013886
0.07187,-0.1564,0.0099184,-0.058137,0.043793,0.0019837,0.0074769,0.019989
0.066072,-0.16831,-0.00076295,-0.035554,0.0383,0.020905,-0.0083925,-0.0022889
0.0035096,-0.11215,-0.017548,-0.02121,0.031281,0.044709,-0.0090028,-0.073396
-0.025177,-0.10819,-0.034028,-0.095369,0.046235,0.022431,0.0099184,-0.072786
-0.04654,-0.086519,-0.074617,-0.1326,0.052949,0.025177,0.02945,-0.024262
-0.052033,-0.019379,-0.11246,-0.076448,-0.011139,0.064851,0.050202,-0.011444
-0.043488,0.030671,-0.095979,-0.069734,-0.0022889,0.033112,0.026703,-0.034638
-0.052949,0.042573,-0.10422,-0.077058,0.017243,-0.0028992,-0.013581,-0.025177
-0.072786,0.074617,-0.12436,-0.10483,-0.0090028,-0.0016785,-0.0071717,0.0071717
-0.074922,0.066377,-0.12253,-0.10178,-0.017548,-0.0099184,0.081941,0.043183
-0.062104,0.033722,-0.069123,-0.087739,-0.025483,-0.023346,0.14481,0.073701
-0.061494,0.035248,-0.08957,-0.103,-0.029145,-0.028229,0.14328,0.098726
-0.045014,0.016022,-0.070954,-0.11093,-0.027619,-0.015717,0.14694,0.10208
-0.02884,0.0044251,-0.028534,-0.076448,-0.02121,-0.022126,-0.43351,0.0383
-0.014801,-0.048066,-0.015412,-0.065766,0.0047303,-0.0090028,-0.65293,0.014191
0.019379,-0.10575,-0.018769,-0.041352,0.0053407,0.041352,0.22904,0.033722
0.017548,-0.13626,-0.0074769,-0.032197,0.02884,0.0086976,0.103,-0.033417
0.0010681,-0.12741,-0.0041199,-0.036774,0.040131,0.012055,-0.056916,-0.063935
0.043793,-0.18418,0.021515,-0.020905,0.044404,0.046845,0.1268,-0.042573
0.041352,-0.12589,-0.012055,-0.043183,0.069429,-0.0047303,0.1445,-0.061799
0.032197,-0.060273,-0.058442,-0.072786,0.068208,-0.0086976,-0.031891,-0.081331
-0.02884,-0.009308,-0.073396,-0.075227,0.027619,0.015412,-0.07126,-0.057832
-0.0053407,0.031281,-0.098726,-0.081331,0.012055,-0.0074769,0.04715,-0.04715
-0.0022889,0.039521,-0.10147,-0.10727,-0.0013733,-0.023041,-0.002594,-0.041657
-0.059968,-0.017548,-0.12467,-0.1088,-0.018769,0.023346,0.07187,-0.019684
-0.092012,0.05417,-0.14267,-0.1146,-0.018769,0.022736,0.055085,0.044404
-0.1091,0.055085,-0.11063,-0.10239,-0.023651,0.019989,-0.015412,0.049592
-0.10391,0.052644,-0.086519,-0.087129,-0.030365,-0.0035096,-0.02945,0.052033
-0.10758,0.043183,-0.091096,-0.12375,-0.014191,-0.033417,-0.11246,0.059663
-0.081025,-0.016327,-0.014191,-0.069734,-0.040742,0.023346,0.045319,0.040436
-0.052033,-0.034638,-0.014191,-0.069429,-0.02945,0.023346,0.10025,0.074617
0.010529,-0.088045,0.0053407,-0.021515,0.0050355,0.023041,0.063935,0.10544
0.041657,-0.14633,-0.0044251,-0.027314,0.025177,0.02884,0.067292,0.081941
0.03769,-0.097505,-0.00045777,-0.055695,0.042267,0.014496,0.02121,0.034333
0.017548,-0.080415,-0.018769,-0.055695,0.041352,0.024567,0.045014,0.035554
0.02121,-0.12833,-0.0090028,-0.058747,0.044099,0.048371,0.069429,0.025177
0.07248,-0.18936,-0.0096132,-0.042878,0.049897,0.050202,0.041047,0.018769
0.041352,-0.12772,-0.064546,-0.048981,0.061189,0.0099184,0.041352,-0.022736
0.015717,-0.051423,-0.048371,-0.069734,0.082551,-0.00076295,0.10361,-0.064546
-0.06363,0.025788,-0.10819,-0.10056,0.050202,-0.0071717,0.13718,-0.061494
-0.12924,0.074617,-0.13474,-0.12436,0.002594,-0.024872,-0.14939,-0.092927
-0.12131,0.065461,-0.13046,-0.12467,-0.035248,-0.011139,-0.38254,-0.097505
-0.12009,0.064546,-0.12222,-0.121,-0.04654,0.014496,0.042878,-0.002594
-0.092927,0.049287,-0.093233,-0.1091,-0.050813,0.014801,0.069734,0.067597
-0.074922,0.044404,-0.094453,-0.1088,-0.043488,-0.0013733,0.010834,0.10605
-0.065156,0.016632,-0.099641,-0.085298,-0.023651,0.0010681,0.033722,0.11154
-0.036469,-0.026703,-0.040436,-0.090791,-0.023346,0.0028992,0.0071717,0.085603
-0.037385,-0.053559,-0.014191,-0.074617,0.0056458,-0.0035096,0.047456,0.050202
-0.012055,-0.053559,-0.005951,-0.060273,-0.0083925,0.036774,0.19242,0.066377
0.022736,-0.11795,0.014191,-0.050813,-0.0096132,0.054475,0.26139,0.056611
0.027924,-0.15,0.0062562,-0.038605,0.0096132,0.069123,0.41764,0.0032044
0.041962,-0.12192,0.0096132,-0.030671,0.033417,0.016327,-0.013581,-0.07126
0.045014,-0.10147,-0.012665,-0.048981,0.068513,-0.11154,-0.90623,-0.11429
0.042267,-0.048981,-0.047761,-0.056916,0.074617,-0.058137,-0.24491,-0.063325
0.0028992,-0.018769,-0.055085,-0.054475,0.075227,0.0206,-0.085603,-0.090791
-0.019074,-0.01297,-0.092012,-0.08957,0.040131,0.066987,0.27604,-0.045624
-0.045319,-0.0074769,-0.11307,-0.094759,-0.0068666,0.037995,0.24613,-0.00076295
-0.047761,-0.018769,-0.093233,-0.0795,-0.0068666,-0.013275,0.047456,-0.0068666
-0.067292,0.029755,-0.13169,-0.10941,0.0068666,-0.071565,-0.20523,0.0074769
-0.10056,0.058747,-0.12467,-0.11032,-0.015106,-0.00015259,-0.14237,0.026093
-0.098116,0.019074,-0.052644,-0.078889,-0.0383,0.049592,0.17716,0.072786
-0.059968,0.023651,-0.11063,-0.078889,-0.027314,0.01297,0.067903,0.10025
-0.059358,0.022126,-0.078279,-0.08896,-0.018158,-0.0010681,0.0383,0.10544
-0.053864,-0.027619,-0.030976,-0.070954,-0.014801,0.0047303,0.019379,0.067597
-0.061189,-0.044099,-0.018769,-0.06363,0.00045777,0.0047303,0.0016785,0.033112
-0.053559,-0.096284,-0.0047303,-0.056306,0.014191,-0.03769,-0.0080873,0.002594
-0.014191,-0.10086,-0.0035096,-0.048676,0.016938,-0.090181,-0.018463,0.0099184
0.02121,-0.11429,-0.0099184,-0.033722,0.022126,0.042267,0.045624,-0.0047303
0.041962,-0.11063,-0.015717,-0.051728,0.028229,0.095979,0.077363,-0.052033
0.059968,-0.14664,0.0056458,-0.052644,0.039826,0.069123,0.041657,-0.052033
0.08835,-0.10544,-0.047761,-0.062409,0.042267,0.05539,0.033417,-0.059358
0.053254,-0.071565,-0.081025,-0.078889,0.034943,0.025483,0.025177,-0.074617
0.00076295,-0.02884,-0.092927,-0.089265,0.035554,-0.011444,0.035554,-0.070954
-0.022431,-0.00076295,-0.12345,-0.090486,0.021515,-0.017853,0.030365,-0.056611
-0.049897,-0.00045777,-0.12467,-0.096284,0.018158,-0.027314,-0.019074,-0.041962
-0.075837,0.035248,-0.11856,-0.11124,0.019074,-0.047761,-0.13169,0.0010681
-0.069734,0.071565,-0.10422,-0.11154,-0.022431,0.0071717,-0.074617,0.066377
-0.12222,0.094453,-0.092622,-0.11398,-0.060883,0.055085,0.073701,0.10544
-0.094453,0.059663,-0.10513,-0.103,-0.028534,0.0010681,0.022126,0.092012
-0.066987,0.025788,-0.042573,-0.095064,-0.026703,-0.013275,0.0086976,0.074311
-0.051118,0.0056458,-0.023041,-0.072175,-0.027314,-0.0099184,-0.00045777,0.051118
-0.02884,-0.076753,-0.0022889,-0.062715,-0.011444,0.0032044,0.027314,0.035859
0.027619,-0.12436,0.0099184,-0.053254,-0.0022889,0.023041,0.02884,0.032197
0.062104,-0.1677,0.02182,-0.047761,-0.0010681,0.02121,-0.00076295,0.019074
0.053254,-0.18387,0.0065614,-0.029145,0.017853,0.020294,0.034333,-0.039826
0.064546,-0.18845,-0.044709,-0.045319,0.052338,0.0053407,-0.01297,-0.070039
0.039521,-0.087434,-0.04654,-0.061799,0.061189,-0.00015259,-0.064851,-0.062715
-0.0053407,-0.049592,-0.021515,-0.049287,0.030365,0.045624,0.022736,-0.095979
-0.037079,-0.015412,-0.059968,-0.077363,0.048981,0.017243,0.080415,-0.083772
-0.094453,0.022126,-0.13291,-0.11582,0.044404,-0.0041199,0.092012,-0.0383
-0.1323,0.071565,-0.1149,-0.090486,-0.010834,0.01236,0.083467,0.02121
-0.13352,0.055695,-0.086519,-0.056611,-0.017243,0.0047303,0.06302,0.097505
-0.14176,0.063935,-0.092927,-0.16312,-0.00015259,0.0053407,0.067597,0.13046
-0.12741,0.06363,-0.1088,-0.12985,-0.017548,0.014191,0.020294,0.18906
-0.10025,0.048371,-0.10544,-0.12161,-0.040742,0.002594,-0.030365,0.20493
-0.092317,0.047456,-0.077363,-0.095369,-0.032807,0.010834,-0.022126,0.15244
-0.0383,-0.022431,-0.048676,-0.062715,-0.030671,0.031586,0.049287,0.085908
-0.0071717,-0.064851,-0.026093,-0.06363,-0.025177,0.022431,0.054475,0.031586
0.038911,-0.092927,-0.06302,-0.026093,0.0099184,0.009308,0.023651,0.0032044
0.082246,-0.13382,0.020905,-0.025177,0.045319,-0.010224,-0.0972,-0.04593
0.090486,-0.13443,0.019379,-0.041047,0.071565,0.0013733,-0.077668,-0.11826
0.074311,-0.11826,0.009308,-0.033112,0.060578,0.020905,0.052949,-0.11429
0.080415,-0.14023,-0.0038148,-0.040742,0.039216,0.016632,-0.0074769,-0.095979
0.092012,-0.1796,-0.011444,-0.048981,0.031281,0.01236,0.0080873,-0.10361
0.049897,-0.11582,-0.043183,-0.046235,0.036774,-0.0080873,-0.10056,-0.11307
-0.010224,-0.0065614,-0.098726,-0.070344,0.028229,-0.017548,-0.13474,-0.091707
-0.090181,0.056001,-0.10605,-0.103,0.025483,-0.00076295,0.0041199,-0.061189
-0.097505,0.026703,-0.11154,-0.11124,0.0086976,0.0068666,0.0383,-0.021515
-0.11765,0.016632,-0.10361,-0.12802,-0.017548,0.00015259,0.045319,0.03769
-0.13779,0.056001,-0.13504,-0.12741,-0.030671,0.014191,0.048371,0.083772
-0.12955,0.076753,-0.1091,-0.1091,-0.041047,0.012665,0.037079,0.11276
-0.12558,0.08072,-0.11215,-0.0972,-0.044404,-0.0074769,0.00045777,0.10269
-0.08072,0.043488,-0.059968,-0.0795,-0.03769,0.024872,0.048981,0.10391
-0.044404,0.028229,-0.055085,-0.098421,-0.0044251,0.043183,0.11826,0.10391
-0.0010681,-0.032197,-0.018463,-0.065461,0.0041199,0.032197,0.061189,0.078279
0.074006,-0.13046,0.020905,-0.04715,-0.0068666,0.0090028,0.026093,0.057832
0.082246,-0.1854,0.012055,-0.011444,0.0077821,-0.017548,-0.066072,-0.021515
0.076753,-0.16159,0.012665,-0.023651,0.034028,0.0062562,-0.081331,-0.08072
0.058137,-0.13596,0.011444,-0.032197,0.065461,0.021515,0.02945,-0.08835
0.057527,-0.14084,0.0013733,-0.050202,0.065766,0.018463,0.09659,-0.05478
0.0090028,-0.090791,-0.052033,-0.067597,0.059358,0.002594,0.18173,-0.057527
-0.0086976,-0.058137,-0.072786,-0.076448,0.056306,-0.028229,0.13107,-0.074617
-0.046845,-0.02945,-0.1146,-0.086824,0.04593,-0.025483,0.0795,-0.063325
-0.087129,0.049592,-0.14145,-0.11551,0.025483,-0.03006,-0.62547,-0.071565
-0.12558,0.077668,-0.11948,-0.11795,-0.0044251,-0.0010681,-0.43015,0.028229
-0.1677,0.094759,-0.11154,-0.12039,-0.023651,0.046845,0.29465,0.12863
-0.16434,0.1207,-0.11856,-0.12131,-0.041352,0.05539,0.1561,0.15061
-0.11765,0.031891,-0.070649,-0.082856,-0.040742,0.018463,0.13474,0.15824
-0.12558,0.031281,-0.092927,-0.092927,-0.025788,0.011444,0.088045,0.11398
-0.057221,-0.014191,-0.052033,-0.08896,-0.031281,0.023041,0.05539,0.11551
-0.0019837,-0.052033,-0.039826,-0.075227,-0.025177,0.014801,0.053864,0.092927
0.012055,-0.08072,-0.0019837,-0.048371,0.0028992,0.0068666,0.06424,0.0071717
0.037385,-0.10239,0.012055,-0.031586,0.014801,0.002594,0.056306,-0.024872
0.052949,-0.12039,0.0077821,-0.051118,0.02884,0.020294,0.0077821,-0.020905
0.079194,-0.11887,0.0083925,-0.035554,0.046235,0.041352,0.020294,-0.045624
0.068513,-0.13046,-0.0074769,-0.033722,0.051423,0.019989,-0.0065614,-0.092012
0.061799,-0.12772,-0.00076295,-0.036469,0.041352,0.005951,-0.0083925,-0.10239
0.058442,-0.098116,-0.059968,-0.058442,0.033722,0.011139,0.029755,-0.089876
0.025788,-0.048676,-0.10483,-0.081331,0.028229,0.020294,0.049287,-0.10239
-0.027314,-0.0038148,-0.12558,-0.091707,0.016632,-0.0086976,0.071565,-0.10117
-0.075532,0.020294,-0.078889,-0.098421,-0.00015259,-0.034028,-0.10422,-0.078279
-0.11917,0.052033,-0.093233,-0.094453,-0.0071717,-0.029145,-0.28061,-0.041352
-0.11978,0.067597,-0.11673,-0.097505,0.0010681,-0.020905,0.099641,-0.00045777
-0.11185,0.058137,-0.14664,-0.12436,-0.0083925,-0.032197,-0.01297,0.076753
-0.093233,0.06424,-0.11276,-0.11398,-0.043488,0.0050355,-0.30961,0.11887
-0.08011,0.0099184,-0.063325,-0.11368,-0.03769,0.042267,0.11826,0.18051
-0.0206,-0.035554,-0.029755,-0.081636,-0.025177,0.040131,0.18143,0.20401
0.024262,-0.078584,-0.0206,-0.059358,-0.013581,0.029145,0.071565,0.1387
0.039216,-0.11734,0.0053407,-0.0383,0.0047303,-0.0062562,0.052949,0.033112
0.005951,-0.11032,0.0016785,-0.032807,0.010529,0.024567,0.025177,-0.056611
-0.009308,-0.074617,-0.044709,-0.043488,0.041962,0.0206,0.026093,-0.041352
0.022736,-0.098726,-0.0016785,-0.047456,0.048066,0.023346,0.047456,0.037385
0.026093,-0.12222,0.044099,-0.039216,0.066377,0.030976,0.050202,0.024262
0.0041199,-0.11215,-0.005951,-0.045014,0.078279,-0.0041199,0.021515,-0.035859
-0.0383,-0.038911,-0.077974,-0.086519,0.059052,0.023957,0.050507,-0.04593
-0.053864,0.0062562,-0.088655,-0.095369,0.036164,0.048676,0.037079,-0.067903
-0.071565,0.07126,-0.11887,-0.10971,0.019989,0.025483,-0.010834,-0.050813
-0.096284,0.05539,-0.11826,-0.11246,-0.0019837,-0.043793,-0.012665,-0.00076295
-0.10971,0.052338,-0.12284,-0.12161,-0.018158,-0.066072,-0.0071717,0.043793
-0.10788,0.092622,-0.12619,-0.11582,-0.030671,0.049592,0.062104,0.064546
-0.069429,0.0062562,-0.10117,-0.10758,-0.04715,0.049592,0.17777,0.075532
-0.035859,-0.015717,-0.10605,-0.11093,-0.056611,0.045624,0.23728,0.084077
-0.0056458,-0.091707,-0.054475,-0.072175,-0.035554,0.039216,0.22995,0.067597
-0.011139,-0.051728,-0.029145,-0.06302,-0.010834,0.012055,0.11398,0.027008
0.0096132,-0.062715,-0.02182,-0.05478,0.022126,-0.073396,-0.82414,-0.051118
0.023346,-0.094453,0.00045777,-0.049287,0.011444,-0.041047,-0.54826,-0.040436
0.032807,-0.11887,0.016632,-0.041352,0.019074,0.037995,0.21164,-0.049287
0.024872,-0.11185,0.015717,-0.040742,0.045624,0.0032044,0.067903,-0.07187
-0.00045777,-0.084077,-0.0099184,-0.057221,0.045624,0.0071717,0.11063,-0.040742
-0.015106,-0.085908,-0.016632,-0.051118,0.013581,0.077668,0.28061,0.0016785
0.025788,-0.078279,-0.030976,-0.055695,0.03769,0.035248,0.21561,-0.021515
0.037995,-0.053864,-0.048371,-0.06302,0.037079,0.036164,0.077363,-0.056611
0.039521,-0.059663,-0.15396,-0.059663,0.024262,-0.035248,-0.26749,-0.039521
0.0035096,0.027314,-0.12039,-0.094453,0.02945,-0.065766,-0.49149,-0.014496
-0.067292,0.048066,-0.13382,-0.11185,0.040131,0.0053407,0.045319,-0.014801
-0.10178,0.052338,-0.12924,-0.12497,0.00076295,-0.039216,0.12039,0.0053407
-0.10208,0.043183,-0.10666,-0.08957,-0.057221,-0.013886,0.048981,0.047761
-0.11551,0.066377,-0.099641,-0.10636,-0.035859,-0.013275,0.10452,0.073701
-0.12375,0.031586,-0.077363,-0.10758,-0.025788,0.045014,0.20523,0.13291
-0.056001,-0.047761,0.0099184,-0.03006,-0.032197,0.084688,0.18387,0.15854
-0.028229,-0.055695,-0.0016785,-0.073701,0.01297,-0.0068666,0.019684,0.12192
-0.02945,-0.07187,-0.0099184,-0.11063,0.044404,-0.043183,-0.059663,0.067597
-0.016632,-0.11002,0.00015259,-0.035248,0.017548,0.031281,-0.051423,0.026703
-0.0053407,-0.10483,0.0016785,-0.022126,0.015106,0.069734,0.10666,-0.025483
-0.00076295,-0.12436,0.00045777,-0.059052,0.051728,0.034638,0.10849,-0.041657
0.017853,-0.10941,-0.014191,-0.060883,0.057832,0.021515,0.025788,-0.036774
0.016632,-0.084688,-0.023041,-0.048371,0.031586,0.034028,-0.053864,-0.043183
0.019379,-0.05417,-0.057832,-0.069734,0.023041,0.023957,-0.029755,-0.053864
0.040131,-0.053559,-0.083467,-0.067292,0.023041,0.0041199,-0.10239,-0.045014
-0.014801,0.0083925,-0.1088,-0.084688,0.016632,0.023346,-0.0050355,-0.023041
-0.069429,0.061189,-0.11643,-0.10849,0.013275,0.0065614,0.009308,-0.034943
-0.084382,0.018463,-0.12497,-0.11734,-0.0022889,-0.0096132,-0.009308,0.024262
-0.081636,0.047456,-0.1268,-0.11643,-0.02121,-0.011139,0.0074769,0.062409
-0.099336,0.066377,-0.10422,-0.10941,-0.04654,-0.0028992,0.023957,0.063935
-0.093538,0.052338,-0.097505,-0.10483,-0.046845,-0.017243,0.0068666,0.033417
-0.043793,-0.0086976,-0.055695,-0.08072,-0.02884,-0.022126,0.021515,0.053559
-0.030671,0.0041199,-0.048371,-0.082856,-0.012665,-0.014191,0.029145,0.070649
-0.016327,-0.014191,-0.023651,-0.076753,-0.012665,0.016327,0.041352,0.051728
0.0016785,-0.08011,-0.0041199,-0.072175,-0.0083925,0.011444,0.020294,0.027924
0.035859,-0.14481,0.016632,-0.044709,0.011749,0.013275,0.016938,0.0071717
0.048066,-0.2089,0.042878,-0.014496,0.037385,0.022431,0.026093,-0.033722
0.074617,-0.22995,0.00015259,-0.012055,0.063325,0.024262,-0.0035096,-0.078889
0.039826,-0.10086,-0.045014,-0.039521,0.086824,0.0032044,-0.020905,-0.094148
0.019379,-0.082246,-0.017548,-0.037385,0.069123,-0.013275,-0.020294,-0.096284
0.0099184,-0.046235,-0.0795,-0.082856,0.055695,0.0041199,-0.0013733,-0.077363
0.021515,-0.038911,-0.10025,-0.10178,0.027619,0.005951,0.0013733,-0.071565
-0.012665,0.012055,-0.13535,-0.10361,0.0028992,0.012665,-0.019379,-0.048981
-0.027008,0.0080873,-0.10117,-0.077668,-0.018463,0.0032044,-0.014191,0.011139
-0.036469,0.022736,-0.10117,-0.095369,-0.012055,0.005951,-0.0086976,0.074311
-0.064546,0.051728,-0.096895,-0.11368,-0.0013733,-0.0077821,0.002594,0.094453
-0.098116,0.092012,-0.10147,-0.12589,-0.0083925,-0.032197,0.0032044,0.091402
-0.1561,0.088045,-0.11063,-0.12528,-0.0383,0.01297,0.045014,0.048371
-0.14267,0.026703,-0.064851,-0.103,-0.061799,0.031281,0.062409,0.06424
-0.095369,-0.021515,-0.035554,-0.075837,-0.051118,0.015412,0.037079,0.10758
-0.034943,-0.066987,-0.0056458,-0.052338,-0.012055,0.024567,0.041047,0.10483
0.020905,-0.10025,-0.005951,-0.023651,0.015717,0.017243,0.0071717,0.066682
-0.0022889,-0.083772,-0.0047303,-0.036469,0.032807,0.00015259,0.050202,0.040131
0.0032044,-0.076143,0.0083925,-0.044099,0.045014,0.077668,0.1915,0.027619
0.020294,-0.049897,-0.013886,-0.037385,0.04715,0.07126,0.11002,0.035248
0.033722,-0.0795,-0.029755,-0.033722,0.068208,0.031586,-0.019074,-0.033112
0.023346,-0.10391,-0.028229,-0.050507,0.0795,-0.0032044,-0.096284,-0.099031
-0.027314,-0.070954,-0.06302,-0.0795,0.057221,-0.049897,-0.25345,-0.098421
-0.078279,-0.0206,-0.092317,-0.10513,0.033112,-0.027314,-0.033112,-0.055085
-0.12528,0.035248,-0.11429,-0.11521,0.023346,0.01236,0.31418,0.025177
-0.14817,0.055695,-0.12039,-0.12741,-0.012665,0.014801,0.21347,0.042267
-0.15946,0.069429,-0.13046,-0.11704,-0.041962,0.026398,0.047761,0.07126
-0.1265,0.047456,-0.11551,-0.1149,-0.04593,0.0028992,-0.73716,0.061189
-0.050813,0.010224,-0.1149,-0.10483,-0.048981,0.035248,-0.11795,0.08072
-0.025177,0.0086976,-0.08072,-0.090791,-0.048981,0.05417,0.32059,0.065461
0.018158,-0.062715,-0.010834,-0.044709,-0.018769,0.023957,0.081636,0.033112
0.04593,-0.043488,-0.046235,-0.071565,0.013275,-0.0016785,0.049287,0.049592
0.059663,-0.10086,-0.0065614,-0.055695,0.01297,-0.0080873,-0.0080873,0.02945
0.062409,-0.14786,0.037385,-0.026703,0.016938,0.0038148,-0.0090028,-0.022736
0.052949,-0.12863,0.012055,-0.032807,0.037995,-0.00015259,0.0383,-0.048676
0.061799,-0.12772,-0.002594,-0.036469,0.044099,0.016632,0.036774,-0.045014
0.048371,-0.13413,-0.0077821,-0.049287,0.050202,0.024872,0.02884,-0.077058
0.023651,-0.095674,-0.022736,-0.05539,0.062409,0.018463,0.039826,-0.11398
-0.0068666,-0.057527,-0.060273,-0.07126,0.041047,0.033417,0.010529,-0.11643
0.0053407,-0.02945,-0.081941,-0.087129,0.023041,0.030365,0.018769,-0.094148
-0.0056458,0.0016785,-0.10422,-0.086824,0.011444,0.040131,0.058442,-0.029755
-0.041352,0.023651,-0.11215,-0.10636,0.0068666,0.016022,0.08011,0.00045777
-0.076143,0.061494,-0.11521,-0.12192,0.012665,-0.030976,0.068513,0.035248
-0.086213,0.076448,-0.11887,-0.074617,-0.0050355,-0.022126,0.033417,0.077363
-0.059663,0.045319,-0.11704,-0.095674,-0.022126,-0.022736,-0.12833,0.066682
-0.045319,-0.020294,-0.072175,-0.10788,-0.027619,-0.030365,-0.065156,0.070039
-0.023346,-0.042573,-0.060883,-0.093233,-0.019379,-0.1149,-0.2327,0.059358
-0.030671,0.002594,-0.046845,-0.084688,-0.0056458,-0.027924,-0.18326,0.033417
-0.045624,-0.030671,-0.035859,-0.066682,-0.009308,0.092927,0.22904,0.037079
-0.0080873,-0.076753,-0.00076295,-0.045624,-0.011444,0.013275,-0.041047,-0.024567
0.041352,-0.1503,0.00045777,-0.052338,0.020905,-0.0019837,-0.077668,-0.011139
0.051728,-0.12009,0.0016785,-0.045014,0.051728,0.022431,0.059663,-0.019074
0.079805,-0.1677,-0.032197,-0.042267,0.033417,0.06424,0.18509,0.0010681
0.025177,-0.068208,-0.0383,-0.062409,0.037995,0.06302,0.27176,-0.00015259
-0.013275,-0.084688,0.00045777,-0.051423,0.037995,0.033112,0.24887,0.0038148
-0.08072,-0.030671,-0.04593,-0.05539,0.027924,0.002594,0.086824,0.0032044
-0.13413,0.034638,-0.084077,-0.076448,0.048066,-0.065156,-0.78874,-0.049287
-0.15488,0.076448,-0.13138,-0.11673,0.029755,-0.036469,-0.32731,-0.002594
-0.13687,0.041352,-0.086519,-0.093843,-0.030976,0.085298,0.27359,0.099947
-0.17044,0.061189,-0.087434,-0.08957,-0.038605,0.080415,0.1677,0.089876
-0.16037,0.11063,-0.12985,-0.13107,-0.019379,0.011139,0.12802,0.09781
-0.1326,0.067597,-0.11337,-0.11307,-0.027314,0.022431,0.1146,0.15549
-0.089265,0.019379,-0.1088,-0.11398,-0.032807,0.030976,0.13993,0.15793
-0.024262,-0.044099,-0.040436,-0.065766,-0.024567,0.010529,0.082856,0.1091
0.0028992,-0.081636,-0.0053407,-0.06424,-0.010529,0.024872,0.056001,0.032807
0.035248,-0.078889,-0.039216,-0.064851,-0.0028992,0.018769,0.034333,0.019074
0.048066,-0.087739,-0.0022889,-0.057527,0.0053407,0.0013733,0.02182,0.029145
0.070039,-0.10239,0.0041199,-0.045014,0.033417,-0.0038148,-0.010224,-0.045319
0.062409,-0.10391,0.0080873,-0.04654,0.038911,-0.005951,-0.021515,-0.11368
0.046235,-0.1323,0.0022889,-0.049592,0.032197,0.0044251,0.0053407,-0.12528
0.062409,-0.12985,-0.019684,-0.046235,0.02121,0.028534,-0.0019837,-0.081636
0.077974,-0.047761,-0.049287,-0.043488,0.0206,0.023346,-0.0068666,-0.062715
0.026093,-0.074617,-0.058137,-0.036164,0.050507,-0.017853,-0.043793,-0.0795
0.00045777,-0.071565,-0.081331,-0.058137,0.067597,-0.020294,-0.049897,-0.063935
-0.044404,0.020294,-0.13993,-0.1091,0.043488,-0.020294,-0.033417,-0.035248
-0.0795,0.028534,-0.13169,-0.11734,0.0068666,-0.017548,-0.022736,-0.0074769
-0.085298,0.02121,-0.12161,-0.11368,-0.0044251,-0.013581,-0.019684,0.020905
-0.08835,0.050507,-0.11154,-0.11398,-0.010529,-0.016022,0.0016785,0.061189
-0.066072,0.031281,-0.1033,-0.084993,-0.027008,0.0022889,0.026703,0.076448
-0.067292,0.039826,-0.10025,-0.096895,-0.024872,0.023346,0.081941,0.058137
-0.028534,-0.009308,-0.049897,-0.09781,-0.022431,-0.0041199,0.027924,0.039826
-0.015717,0.0065614,0.0053407,-0.077363,-0.025177,-0.023651,-0.085908,0.042267
-0.0206,-0.063935,0.011444,-0.041047,-0.010529,-0.019989,0.0080873,0.046235
-0.0013733,-0.11978,0.011444,-0.0090028,-0.00045777,0.0028992,-0.103,0.039826
-0.0041199,-0.10971,-0.005951,-0.12741,0.030365,0.037079,0.037079,0.0077821
-0.0028992,-0.11582,-0.0044251,-0.064546,0.031586,0.034943,0.11185,-0.014191
0.037385,-0.12222,-0.022736,-0.040742,0.0086976,0.057221,0.027619,-0.0383
0.027924,-0.13565,0.013275,-0.026398,0.042878,0.0383,0.013275,-0.073091
0.0053407,-0.077668,-0.07248,-0.051728,0.068513,0.027314,0.017853,-0.086824
-0.0053407,-0.06363,-0.036164,-0.069734,0.055695,0.015412,0.019379,-0.077668
-0.019074,0.0041199,-0.10147,-0.086519,0.040436,-0.021515,0.0053407,-0.034333
-0.065766,0.069734,-0.13046,-0.11154,0.03769,-0.029145,-0.025177,0.031586
-0.095674,0.075227,-0.12619,-0.11551,-0.012665,0.015106,-0.00015259,0.073396
-0.088045,0.055085,-0.11856,-0.12345,-0.033722,0.005951,0.026093,0.1091
-0.086213,0.025788,-0.08835,-0.11154,-0.032502,0.025177,0.058137,0.13779
-0.084382,0.062409,-0.08896,-0.10117,-0.034333,0.05417,0.067597,0.13596
-0.076143,0.081941,-0.084077,-0.083772,-0.038605,0.03006,0.028229,0.091707
-0.031891,0.047761,-0.062409,-0.046235,-0.039826,0.016327,0.0080873,0.078584
-0.012665,-0.034333,-0.030976,-0.049592,0.013275,-0.0050355,-0.01236,0.043183
-0.045014,-0.14359,-0.0044251,-0.073701,0.043488,-0.010224,-0.0090028,-0.018158
-0.034638,-0.15335,0.0016785,-0.05539,0.015412,0.018158,0.017853,-0.02945
0.0065614,-0.17136,-0.00045777,-0.044709,0.02182,0.025483,0.0068666,-0.030365
0.048981,-0.20188,0.017243,-0.040742,0.047761,0.0090028,-0.0047303,-0.079805
0.066072,-0.22019,0.02884,-0.036774,0.039826,-0.0016785,-0.048371,-0.10452
0.072786,-0.20188,-0.0206,-0.060578,0.041047,0.0013733,-0.049287,-0.10117
0.040131,0.01236,-0.1033,-0.074617,0.035248,0.012665,-0.020905,-0.089876
0.0013733,0.083772,-0.13046,-0.099641,0.029145,-0.0050355,0.0032044,-0.044404
-0.052949,0.099336,-0.11246,-0.08957,0.020905,0.0099184,0.0016785,0.010834
-0.093843,0.11215,-0.11734,-0.09781,-0.00076295,0.019989,-0.022736,0.039826
-0.097505,0.052338,-0.081025,-0.085298,-0.015106,0.014191,0.0013733,0.049897
-0.12375,0.056001,-0.11124,-0.12589,-0.023041,-0.010224,0.02182,0.049897
-0.12009,0.022126,-0.074617,-0.11093,-0.036469,-0.011444,0.032197,0.080415
-0.083467,-0.038911,-0.092622,-0.084688,-0.072786,0.019989,0.096284,0.13687
-0.094148,0.0074769,-0.085908,-0.090791,-0.0206,-0.012665,0.13016,0.066682
-0.067597,-0.0062562,-0.056306,-0.090791,-0.0035096,0.0050355,0.088045,0.049592
-0.016938,-0.08011,0.0099184,-0.044404,-0.018158,0.037385,0.055085,0.083772
0.0010681,-0.099641,0.011444,-0.043183,0.019379,0.026093,0.018769,0.077974
0.039216,-0.11032,-0.0086976,-0.041657,0.060578,0.018158,-0.066987,0.041047
0.065156,-0.12558,0.014191,-0.034333,0.045624,0.02121,-0.098421,-0.00015259
0.066682,-0.11368,-0.025483,-0.053559,0.062409,0.0041199,-0.030671,-0.028229
0.059663,-0.095369,-0.028229,-0.070954,0.05417,0.014496,0.0096132,-0.064546
0.045014,-0.092317,-0.040131,-0.066377,0.030976,0.016632,0.027924,-0.08835
0.013275,-0.052338,-0.070649,-0.074922,0.0383,0.002594,0.047456,-0.099031
-0.023346,-0.011749,-0.10422,-0.07126,0.034028,-0.027314,0.079805,-0.07187
-0.043183,0.021515,-0.12039,-0.092927,0.011749,-0.0383,-0.015106,-0.041047
-0.0795,0.047456,-0.11032,-0.1146,0.0047303,-0.0071717,-0.067903,-0.01297
-0.093233,0.051118,-0.084077,-0.10239,-0.024872,0.020905,0.31632,0.042878
-0.097505,0.059968,-0.11521,-0.10575,-0.021515,-0.022126,0.013886,0.057832
-0.10422,0.049897,-0.10147,-0.10941,-0.019379,-0.048066,-0.80095,0.042878
-0.11154,0.039521,-0.082856,-0.10452,-0.036774,0.0099184,-0.050813,0.11551
-0.066987,-0.005951,-0.045014,-0.083162,-0.039521,0.046235,0.28946,0.13657
-0.044709,-0.039521,-0.029145,-0.07248,-0.028229,0.047456,0.035859,0.058137
-0.0044251,-0.084077,-0.0077821,-0.061799,-0.019684,0.052338,0.10361,0.03769
0.024872,-0.10239,-0.017853,-0.047456,-0.012665,0.058137,0.078279,0.009308
0.0016785,-0.094453,-0.0090028,-0.056611,0.021515,0.033417,0.062409,-0.043183
0.018158,-0.11826,-0.0019837,-0.040436,0.043183,0.02945,0.060578,-0.082246
0.026093,-0.1207,-0.030976,-0.022736,0.03769,0.067292,0.10544,-0.11826
0.051118,-0.10483,-0.0099184,-0.034333,0.055085,0.057221,0.1854,-0.10422
0.0383,-0.084077,-0.053254,-0.074311,0.073091,-0.0062562,0.04715,-0.065766
0.013275,-0.086213,-0.070954,-0.082551,0.043183,-0.013886,-0.034638,0.0038148
-0.0035096,-0.056611,-0.05417,-0.082246,0.048066,-0.11276,-0.24155,0.024872
-0.022736,-0.010224,-0.1033,-0.087129,0.044404,-0.084382,-0.37675,0.01297
-0.059358,0.035248,-0.12375,-0.10391,-0.0028992,0.066377,0.24308,0.035248
-0.075837,0.07187,-0.12558,-0.09781,-0.042573,0.029145,0.24613,0.07248
-0.085298,0.077668,-0.1207,-0.10971,-0.043488,0.011444,-0.23819,0.031891
-0.10178,0.062409,-0.091402,-0.10391,-0.032502,0.0086976,-0.25803,0.026093
-0.097505,0.029145,-0.070344,-0.10117,-0.048676,0.002594,0.082856,0.052949
-0.067292,-0.011444,-0.046235,-0.075227,-0.023651,-0.10819,-0.027008,0.0383
-0.03769,-0.019379,-0.029755,-0.084382,-0.0028992,0.0071717,0.023041,0.034028
-0.015717,-0.059968,-0.0065614,-0.060273,-0.0090028,0.074922,0.1323,0.065461
0.02945,-0.12894,0.017548,-0.037079,0.0013733,0.036774,0.10758,0.075837
0.056611,-0.14817,0.014191,-0.052949,0.042267,0.019989,0.014801,0.034943
0.10178,-0.18753,0.055695,-0.02121,0.074006,0.021515,0.036774,0.010834
0.05417,-0.12497,-0.037995,-0.010834,0.074311,0.037079,0.045319,-0.015412
0.0099184,-0.077363,-0.033112,-0.05539,0.098421,0.014191,0.0016785,-0.076143
-0.015106,-0.048371,-0.10239,-0.076753,0.070039,0.0083925,0.0010681,-0.075837
-0.015412,-0.0065614,-0.099336,-0.09659,0.013581,0.037995,-0.0090028,-0.063935
-0.033417,0.0062562,-0.10452,-0.09781,0.0053407,0.017243,0.023957,-0.054475
-0.052033,0.022126,-0.11704,-0.099031,0.0013733,-0.025788,-0.0053407,-0.035248
-0.13382,0.062104,-0.13748,-0.12253,-0.0032044,-0.049897,-0.1268,-0.016327
-0.19821,0.093843,-0.11368,-0.13443,-0.0071717,-0.030365,0.11521,0.039216
-0.16403,0.093538,-0.093538,-0.12741,-0.042573,0.012055,0.35264,0.15946
-0.14664,0.071565,-0.094759,-0.10452,-0.073091,0.074311,0.34501,0.17166
-0.103,0.026703,-0.061799,-0.086824,-0.073091,0.059052,0.10819,0.082551
-0.055695,-0.0096132,-0.034943,-0.08072,-0.041657,-0.017853,-0.77745,-0.0035096
0.069734,-0.069734,-0.023957,-0.061189,-0.0044251,-0.0010681,-0.17624,0.025483
0.11093,-0.070649,-0.01236,-0.050202,0.00045777,0.05539,0.23331,0.025788
0.076753,-0.13809,0.050507,-0.021515,0.005951,0.060883,0.050202,0.0086976
0.14328,-0.26902,0.030671,0.012055,0.041352,0.034333,0.10575,-0.009308
0.13504,-0.27756,-0.0065614,0.026703,0.081941,0.0090028,0.076448,-0.038605
0.084077,-0.18967,-0.00076295,-0.071565,0.08957,-0.017243,-0.0053407,-0.059663
0.011139,-0.01236,-0.0795,-0.10483,0.076753,-0.056001,-0.18723,-0.094453
-0.043183,0.011444,-0.070954,-0.082246,0.044404,-0.019379,-0.14878,-0.11398
-0.084382,0.027924,-0.0972,-0.085603,0.015717,0.050813,0.03006,-0.087434
-0.12314,0.082551,-0.12314,-0.10361,0.00045777,0.027008,0.063325,0.0013733
-0.1622,0.074617,-0.12528,-0.10758,-0.014801,-0.015412,0.0099184,0.068208
-0.13565,0.06363,-0.13382,-0.11154,-0.023346,-0.034028,0.017243,0.088655
-0.13535,0.046235,-0.090181,-0.10758,-0.030976,-0.0032044,0.051423,0.10758
-0.12345,0.085603,-0.091402,-0.11887,-0.040436,0.0053407,0.047456,0.063325
-0.085908,0.04654,-0.10819,-0.087739,-0.040436,-0.014801,0.041352,0.069123
-0.058137,-0.052033,-0.032807,-0.063325,-0.016938,-0.0090028,0.012055,0.057832
-0.020294,-0.08957,-0.0062562,-0.056306,0.010834,0.0019837,0.012055,0.05539
0.019989,-0.10758,-0.018463,-0.056306,0.0065614,0.002594,0.022736,0.051728
0.077668,-0.13565,-0.0044251,-0.045624,0.018158,0.015412,0.022126,-0.0041199
0.08011,-0.11948,0.0077821,-0.032807,0.053864,0.0028992,0.0074769,-0.04593
0.066072,-0.1323,-0.0086976,-0.048981,0.059663,0.012055,-0.023346,-0.077974
0.044099,-0.10636,-0.0099184,-0.064546,0.036774,0.030671,-0.012665,-0.065461
0.0056458,-0.074006,-0.019989,-0.057527,0.029145,0.044709,-0.012665,-0.05478
-0.02121,-0.0083925,-0.039826,-0.072175,0.012665,0.050813,0.0068666,-0.066987
-0.025177,0.014191,-0.08072,-0.074311,0.0080873,0.02884,-0.020294,-0.050813
-0.032807,0.036164,-0.11307,-0.08896,0.0071717,0.0077821,0.0053407,-0.024567
-0.095064,0.049592,-0.12467,-0.10452,0.0053407,0.014801,0.049592,0.010529
-0.11002,0.039521,-0.11673,-0.11551,-0.011444,0.010529,0.044099,0.049592
-0.10697,0.015717,-0.10147,-0.10697,-0.02884,0.00015259,0.066682,0.10575
-0.10422,-0.020294,-0.10086,-0.088655,-0.028229,-0.005951,0.070649,0.15488
-0.089265,0.010224,-0.11643,-0.11276,-0.035859,0.0010681,0.049592,0.16617
-0.049287,-0.045624,-0.0795,-0.095674,-0.014191,0.005951,0.015106,0.11063
-0.0047303,-0.023346,-0.052644,-0.078279,-0.011139,0.00045777,0.011139,0.079194
0.034028,-0.069734,-0.020905,-0.069123,0.0068666,0.0050355,-0.0010681,0.0071717
0.03769,-0.10147,-0.00015259,-0.050507,0.026703,-0.009308,-0.024567,-0.047456
0.04654,-0.11612,0.010529,-0.035248,0.037079,-0.011749,-0.033417,-0.04715
0.047761,-0.1268,0.03769,-0.018158,0.040131,-0.0019837,-0.018463,-0.042573
0.063935,-0.13199,-0.0035096,-0.044099,0.041352,0.0080873,-0.02121,-0.095674
0.081331,-0.10483,-0.020905,-0.053559,0.045014,0.017243,-0.027314,-0.12741
0.045319,-0.05478,-0.037995,-0.062409,0.047761,0.0038148,-0.030976,-0.1265
-0.030365,-0.0068666,-0.059358,-0.075837,0.049897,-0.005951,-0.030365,-0.081636
-0.057832,0.0077821,-0.084993,-0.083467,0.02884,0.0071717,0.002594,-0.02884
-0.075227,0.013886,-0.1088,-0.095369,0.0041199,0.009308,0.0071717,-0.020294
-0.095369,0.036469,-0.12161,-0.11276,-0.011444,0.0090028,0.057527,-0.02884
-0.098421,0.041962,-0.091096,-0.12039,-0.023346,0.010529,0.072175,0.053559
-0.098421,0.054475,-0.1268,-0.11154,-0.036774,0.015412,0.070649,0.11978
-0.098116,0.059358,-0.12345,-0.11521,-0.032197,-0.0013733,0.035859,0.088045
-0.095979,0.062715,-0.11032,-0.11582,-0.043488,-0.023957,-0.22477,0.079194
-0.095064,0.025788,-0.070039,-0.091402,-0.038911,0.015106,-0.17838,0.076143
-0.067597,-0.05417,-0.039216,-0.081636,-0.032807,0.061189,0.15915,0.091402
-0.0090028,-0.11368,-0.012665,-0.051728,-0.023041,0.048371,0.098421,0.10452
0.024872,-0.14481,0.083772,0.02945,0.012055,0.036164,0.061799,0.062409
0.019989,-0.12375,-0.010529,-0.0062562,0.062104,0.0077821,0.02182,-0.00045777
0.015412,-0.095674,-0.017548,-0.065156,0.083162,-0.01297,-0.039826,-0.058747
-0.00076295,-0.084993,-0.00076295,-0.066987,0.039521,0.0028992,-0.058747,-0.040742
0.014191,-0.089876,-0.023651,-0.058137,0.035248,0.010834,-0.0206,0.0080873
0.02945,-0.084993,-0.066682,-0.067597,0.041962,0.025483,0.039826,0.0013733
0.024262,-0.058442,-0.052033,-0.066377,0.035248,0.025483,0.036164,-0.01236
0.015717,-0.048066,-0.066377,-0.085298,0.03769,-0.00076295,0.013275,-0.031281
0.02121,-0.044404,-0.076753,-0.081636,0.037995,-0.0010681,0.043793,-0.039826
-0.014496,0.00015259,-0.1323,-0.11887,0.0077821,0.016022,0.080415,0.0032044
-0.067597,0.067903,-0.14481,-0.1268,-0.0068666,-0.011139,0.023957,0.017853
-0.1146,0.084688,-0.10819,-0.11887,-0.024567,-0.022126,-0.059052,0.039826
-0.099947,0.034333,-0.099641,-0.11063,-0.046845,-0.014801,-0.11154,0.076753
-0.091402,0.059358,-0.10086,-0.103,-0.040742,-0.015106,-0.06363,0.081331
-0.075227,0.011139,-0.044099,-0.082856,-0.026703,-0.016938,0.035859,0.05417
-0.048981,-0.02884,-0.036164,-0.06363,-0.019074,-0.0090028,0.047761,0.034943
0.010834,-0.077668,-0.0013733,-0.04715,-0.0041199,0.017243,0.10666,0.019684
0.010834,-0.10941,0.0062562,-0.050507,0.019989,0.019379,0.14786,-0.0041199
0.019074,-0.1088,0.0022889,-0.043488,0.031281,0.035248,0.032197,0.0077821
0.024262,-0.1384,-0.0068666,-0.028534,0.031281,0.037995,-0.0032044,-0.02121
0.035859,-0.14023,0.026703,-0.03006,0.03769,0.022431,-0.0086976,-0.07126
0.0013733,-0.099947,-0.028534,-0.062409,0.065156,0.034943,-0.0086976,-0.098116
-0.0041199,-0.050813,-0.070039,-0.074311,0.037995,0.04715,-0.011139,-0.094148
0.002594,-0.035554,-0.084993,-0.095674,0.015717,0.041047,0.019684,-0.061494
-0.016327,-0.00076295,-0.1149,-0.091402,0.0077821,0.027314,0.1677,-0.040742
-0.065461,0.039216,-0.1149,-0.11551,0.009308,0.0038148,0.15946,-0.012055
-0.084993,0.060273,-0.11337,-0.103,-0.0068666,-0.0016785,0.19486,0.059968
-0.10575,0.061799,-0.12467,-0.096895,-0.024262,-0.015106,-0.038911,0.065461
-0.11521,0.064546,-0.11093,-0.11276,-0.024262,-0.06363,-0.87358,0.019074
-0.103,0.058442,-0.090791,-0.09781,-0.020294,-0.092622,-0.076753,0.090791
-0.08072,0.025483,-0.059968,-0.086824,-0.037385,0.0041199,0.23514,0.092622
-0.06302,-0.020294,-0.055085,-0.077058,-0.041657,0.070344,-0.049592,0.038911
-0.020294,-0.066682,-0.0383,-0.067597,-0.010529,0.036774,0.16007,0.011139
0.0086976,-0.095979,-0.0053407,-0.041047,0.0056458,-0.0050355,0.097505,0.0028992
0.037995,-0.11765,0.0053407,-0.055695,0.017853,0.031281,0.19455,0.031281
0.033112,-0.11948,0.022126,-0.046235,0.038911,0.032807,0.050202,0.030976
0.039216,-0.17044,0.014191,-0.041352,0.031281,0.022126,-0.34653,-0.019379
0.031586,-0.13565,0.0047303,-0.038911,0.033112,0.033417,-0.018158,-0.019379
0.04593,-0.10941,0.005951,-0.013581,0.05417,0.016938,0.069123,-0.049897
0.009308,-0.070649,-0.084382,-0.065461,0.070649,-0.0056458,0.0050355,-0.076753
-0.0013733,-0.055695,-0.095369,-0.08072,0.045014,-0.0077821,0.050202,-0.05478
-0.024567,0.012055,-0.1268,-0.10239,0.015106,-0.015412,0.03769,-0.024567
-0.061799,0.038605,-0.21103,-0.1033,-0.0022889,-0.012665,0.00045777,-0.0035096
-0.082856,0.05417,-0.088655,-0.11337,-0.0071717,-0.016938,-0.11643,0.017548
-0.092927,0.083467,-0.11704,-0.11582,-0.0056458,-0.020905,-0.012055,0.059052
-0.077668,0.11063,-0.10269,-0.10361,-0.051728,0.010224,0.079805,0.095979
-0.081636,0.070039,-0.081025,-0.11398,-0.050507,0.0047303,0.057221,0.092012
-0.070649,0.0032044,-0.051118,-0.10452,-0.042878,0.015106,0.059052,0.081636
-0.039521,-0.056001,-0.02182,-0.072786,-0.030365,0.033417,0.092012,0.092927
0.011749,-0.15183,0.0080873,-0.047761,-0.0013733,0.037385,0.066072,0.074617
0.009308,-0.10391,0.011444,-0.051118,0.020905,0.0077821,-0.0083925,0.020905
0.019074,-0.097505,0.005951,-0.056916,0.050507,-0.024872,-0.095064,-0.016327
0.022126,-0.090486,0.013581,-0.058747,0.050507,0.013275,-0.053254,-0.092317
0.02182,-0.066682,-0.0083925,-0.028229,0.025177,0.060883,0.099947,-0.10513
0.011139,-0.11002,-0.0099184,-0.0083925,0.033722,0.028534,0.057221,-0.11978
0.010834,-0.10391,-0.059968,-0.10575,0.06424,0.0050355,0.019989,-0.085298
0.0086976,-0.075837,-0.060273,-0.066377,0.045319,-0.0062562,0.017548,-0.038605
-0.009308,-0.05417,-0.064851,-0.056611,0.015412,0.002594,0.032807,-0.0074769
-0.088045,0.030671,-0.091096,-0.082856,0.044099,-0.032807,0.014191,0.045014
-0.090791,0.061189,-0.13901,-0.086519,0.013581,-0.028229,-0.033112,0.1088
-0.082246,0.078584,-0.15549,-0.12192,-0.016327,0.0077821,0.0077821,0.098421
-0.077974,0.065766,-0.12619,-0.13291,-0.017243,0.0071717,0.0047303,0.032807
-0.084993,0.057527,-0.10544,-0.10758,-0.030976,0.0068666,-0.010529,0.023957
-0.08896,0.023651,-0.088045,-0.10178,-0.039826,0.0013733,-0.0090028,0.063325
-0.053559,-0.022431,-0.051728,-0.093233,-0.048981,0.017853,0.099641,0.095674
-0.034333,-0.08072,-0.037995,-0.077668,-0.034943,0.037079,0.27451,0.052338
0.011749,-0.15335,0.00045777,-0.069123,-0.018463,0.029145,0.37827,0.029755
0.034943,-0.092622,-0.0016785,-0.064546,0.017243,0.0077821,0.23484,-0.00045777
0.023957,-0.065461,0.009308,-0.032807,0.044099,-0.03006,-0.64378,-0.030671
0.073396,-0.098726,0.0022889,-0.034638,0.04593,-0.057832,-0.88182,0.0032044
0.070649,-0.12192,0.005951,-0.016938,0.058137,0.023041,0.054475,-0.035554
-0.042878,-0.074006,-0.040131,-0.046845,0.061189,0.059663,0.31876,-0.11337
-0.05539,-0.04654,-0.053254,-0.065766,0.023041,0.02945,0.15518,-0.057832
-0.023346,-0.060578,-0.070039,-0.0795,0.025788,0.020905,0.12802,-0.025483
0.011749,-0.032807,-0.10636,-0.1088,0.034028,-0.0090028,0.072786,-0.022126
-0.0086976,0.023957,-0.0972,-0.087129,0.014191,-0.013886,-0.11704,0.017548
-0.063935,0.052338,-0.12253,-0.12345,0.0047303,-0.013581,-0.14572,0.011139
-0.08896,0.053864,-0.092622,-0.12436,-0.015106,-0.019074,0.043183,0.028229
-0.11704,0.049287,-0.10544,-0.11795,-0.033722,-0.0050355,0.069734,0.030365
-0.13443,0.045319,-0.11673,-0.10178,-0.039521,0.013886,0.067903,0.061494
-0.12528,0.040742,-0.10056,-0.08896,-0.035554,0.016022,0.077668,0.11704
-0.077058,-0.045319,0.0080873,-0.054475,-0.048371,0.051423,0.094759,0.10269
-0.0383,-0.061494,-0.016022,-0.058442,-0.0086976,0.032197,0.086824,0.059968
0.045014,-0.072175,-0.018158,-0.051728,0.0090028,0.024262,0.033417,0.041352
0.061494,-0.052644,-0.010224,-0.059052,0.023957,0.037079,0.014801,0.00076295
0.041047,-0.13901,0.0041199,-0.038605,0.046235,0.012665,-0.022431,-0.025483
0.057527,-0.15671,0.014191,-0.044099,0.048371,-0.016327,-0.032807,-0.067597
0.043793,-0.11734,-0.022126,-0.048676,0.039521,0.0047303,0.00076295,-0.075837
0.045014,-0.11551,-0.028534,-0.049287,0.033112,0.0080873,-0.011444,-0.069429
0.0032044,-0.093538,-0.069429,-0.077058,0.048066,-0.0028992,-0.038605,-0.093843
-0.027008,-0.060273,-0.083162,-0.081025,0.030365,0.023346,-0.020905,-0.071565
-0.058747,0.017243,-0.084382,-0.078279,-0.0010681,0.040436,0.062409,-0.01297
-0.084077,0.048676,-0.13443,-0.10636,0.019989,0.0044251,0.051423,0.010834
-0.069429,0.058442,-0.13107,-0.12039,0.0096132,-0.0071717,0.04593,0.02182
-0.090181,0.071565,-0.11734,-0.096895,-0.02884,-0.019684,-0.0028992,0.030976
-0.081941,0.056306,-0.10086,-0.11276,-0.029755,-0.048981,-0.29801,0.039826
-0.073701,0.027924,-0.10666,-0.10666,-0.023041,-0.015412,-0.081331,0.076448
-0.059052,-0.00076295,-0.057221,-0.08957,-0.031586,-0.0038148,0.1387,0.10269
-0.029755,-0.034638,-0.043793,-0.075837,-0.0096132,-0.013581,0.014801,0.091707
-0.02884,-0.060273,-0.0099184,-0.051118,-0.0047303,0.014496,0.022126,0.077363
-0.00015259,-0.093843,0.015717,-0.042573,-0.012055,0.036774,0.040131,0.082551
0.029145,-0.10971,0.00076295,-0.044099,-0.0032044,0.042573,0.050507,0.066682
0.027314,-0.10971,0.010834,-0.022431,0.031586,0.031281,0.03769,0.012665
0.034333,-0.10819,-0.014191,-0.040742,0.059968,0.023041,0.03769,-0.050813
0.027314,-0.094148,-0.020294,-0.052338,0.066682,0.034638,0.041962,-0.10117
-0.0035096,-0.081636,-0.031586,-0.074311,0.056916,0.023346,0.010834,-0.099031
-0.013275,-0.05539,-0.069429,-0.081025,0.042267,0.010834,0.011139,-0.058137
-0.027008,-0.010834,-0.095369,-0.082856,0.010834,0.0068666,0.0032044,-0.041657
-0.039826,0.0080873,-0.090181,-0.11124,0.011749,-0.011444,0.015106,-0.030671
-0.091402,0.045319,-0.12345,-0.1091,-0.0028992,0.00045777,0.017853,-0.020905
-0.091707,0.042267,-0.13901,-0.11704,-0.034333,0.032807,0.033722,0.030365
-0.094148,0.051118,-0.12253,-0.11673,-0.041352,0.034943,0.033417,0.075837
-0.10575,0.0038148,-0.066377,-0.10727,-0.043488,0.03006,-0.031586,0.060273
-0.092012,0.027924,-0.094759,-0.11704,-0.0383,0.017853,-0.017243,0.07248
-0.067903,0.017853,-0.063325,-0.093843,-0.032502,0.012055,0.029755,0.072175
-0.021515,-0.027924,-0.020905,-0.056916,-0.026398,-0.062104,-0.023041,0.052338
0.023651,-0.081636,-0.0083925,-0.051728,-0.0083925,-0.075837,-0.023041,0.043183
0.070344,-0.14939,-0.0016785,-0.030365,0.016632,0.051423,0.049897,0.020905
0.083467,-0.14694,-0.0056458,-0.014801,0.043793,0.022126,0.021515,0.010834
0.054475,-0.15,0.053559,-0.010529,0.082246,-0.011444,-0.026398,-0.031586
0.058442,-0.11429,-0.02182,-0.049287,0.074006,-0.00015259,-0.023346,-0.067903
0.067292,-0.12985,-0.005951,-0.034943,0.070039,0.0010681,-0.022126,-0.08011
0.031891,-0.069429,-0.069429,-0.06302,0.055695,0.0019837,-0.0047303,-0.07187
-0.017548,-0.0074769,-0.10239,-0.08835,0.0383,0.009308,0.018769,-0.08957
-0.059968,0.019379,-0.10758,-0.096895,0.0050355,0.021515,0.044404,-0.076143
-0.08896,0.023346,-0.103,-0.094453,-0.0050355,0.0010681,0.0383,-0.045014
-0.093233,0.063935,-0.12497,-0.12772,-0.0056458,-0.023041,-0.08896,0.018769
-0.098116,0.062409,-0.12863,-0.13718,-0.019684,-0.0022889,-0.04654,0.08072
-0.13016,0.070649,-0.10727,-0.12436,-0.061494,-0.0019837,0.0032044,0.075837
-0.18448,0.060273,-0.095979,-0.12345,-0.061494,0.040131,0.039826,0.082551
-0.14572,0.046235,-0.067903,-0.092317,-0.053559,0.04654,0.085908,0.11673
-0.050813,-0.0099184,-0.034943,-0.069734,-0.033722,0.024262,0.09659,0.12772
-0.0050355,-0.044709,-0.020294,-0.05417,-0.009308,0.04654,0.079805,0.077668
0.017243,-0.050202,-0.016022,-0.05539,0.018158,0.039216,0.086824,0.052033
0.087434,-0.098421,0.0035096,-0.041047,0.036164,0.0038148,0.056001,0.061189
0.089876,-0.15396,0.0016785,-0.034333,0.047761,-0.0099184,-0.095369,0.025177
0.06302,-0.20157,0.040742,-0.024872,0.073701,0.0032044,-0.043488,-0.019379
-0.011139,-0.11551,-0.0056458,-0.07126,0.078279,0.0022889,-0.015106,-0.075837
-0.0041199,-0.096284,-0.067292,-0.057221,0.031891,0.0086976,-0.1265,-0.08835
-0.012665,-0.067903,-0.090181,-0.068208,0.022736,0.024567,0.050507,-0.069123
-0.04654,-0.025483,-0.062104,-0.084993,0.03769,0.030976,0.19516,-0.063325
-0.075837,-0.0022889,-0.089265,-0.082856,0.023346,0.040742,0.27115,-0.022431
-0.10819,0.034028,-0.12497,-0.083162,-0.0047303,0.032807,0.21164,-0.00015259
-0.11337,0.067597,-0.13291,-0.11734,-0.0074769,-0.0010681,0.10575,-0.00076295
-0.11856,0.11246,-0.12131,-0.13504,-0.025483,-0.028229,-0.59373,0.01297
-0.086824,0.055695,-0.098421,-0.11154,-0.047456,-0.031281,-0.65782,0.094759
-0.06363,0.0096132,-0.089265,-0.1033,-0.055695,0.018158,0.2916,0.16953
-0.039521,-0.015717,-0.048676,-0.089265,-0.039216,0.022126,0.22812,0.11673
-0.02121,-0.051423,-0.023041,-0.053254,-0.025788,0.0071717,0.15305,0.06363
0.023651,-0.1149,0.027314,0.035554,0.0074769,0.0010681,0.17777,0.022126
0.037385,-0.11246,-0.013581,-0.091707,0.053864,-0.005951,-0.19089,-0.018769
0.065156,-0.098726,-0.043183,-0.077668,0.08072,-0.010834,-0.23484,-0.036774
0.06363,-0.10788,0.0047303,-0.043183,0.047761,0.0050355,0.10636,-0.026703
0.060273,-0.11887,-0.014496,-0.045624,0.045014,0.020294,0.093538,-0.066072
0.03769,-0.12436,-0.030365,-0.049592,0.037079,0.01236,0.055085,-0.085298
0.011139,-0.095674,-0.042573,-0.055695,0.033417,0.01297,-0.018769,-0.06302
0.014191,-0.053864,-0.066682,-0.082246,0.046845,-0.010834,-0.031586,-0.070649
-0.022736,-0.0047303,-0.103,-0.095674,0.026093,-0.033112,-0.095369,-0.072175
-0.050507,0.023651,-0.087129,-0.098421,0.0047303,0.022736,0.0016785,-0.06302
-0.081331,0.035248,-0.10666,-0.097505,0.00045777,-0.0047303,0.056306,0.0090028
-0.11337,0.064546,-0.11887,-0.11734,-0.0041199,-0.0038148,-0.020294,0.019684
-0.11765,0.087434,-0.091402,-0.10178,-0.037079,-0.0047303,-0.0206,0.036774
-0.12192,0.050202,-0.10544,-0.095369,-0.047761,-0.015412,0.084077,0.11917
-0.10117,0.048371,-0.10727,-0.10086,-0.019074,-0.0068666,0.13413,0.13718
-0.058747,-0.0053407,-0.052033,-0.085603,-0.025483,0.013275,0.074311,0.12284
-0.01236,-0.051423,-0.030976,-0.050202,-0.016938,0.049287,0.10452,0.11276
-0.0080873,-0.078584,-0.037995,-0.05417,0.0016785,0.046845,0.098421,0.056611
0.035859,-0.12985,-0.0013733,-0.076753,0.0019837,0.045319,0.063325,0.0206
0.061189,-0.17166,0.03769,-0.033112,-0.00045777,0.052644,0.02945,-0.038605
0.084077,-0.22263,0.029755,-0.020905,0.033722,0.026703,-0.019379,-0.1387
0.039521,-0.1326,0.0074769,-0.042267,0.069123,-0.0096132,-0.060578,-0.1265
0.014801,-0.085908,0.005951,-0.024872,0.06363,0.0013733,-0.04654,-0.073701
-0.024872,-0.036469,-0.058442,-0.048371,0.067292,-0.0068666,-0.034943,-0.034943
-0.092317,0.051423,-0.094759,-0.10727,0.067597,-0.024872,-0.022431,-0.016938
-0.12039,0.10239,-0.12161,-0.11246,0.018158,-0.0041199,0.014801,0.045624
-0.1033,0.096284,-0.13535,-0.11582,-0.042878,0.039521,0.070039,0.12009
-0.11612,0.08011,-0.1207,-0.11948,-0.048371,0.03006,0.054475,0.085908
-0.084077,0.022431,-0.10605,-0.1091,-0.032502,-0.0013733,0.0013733,0.065156
-0.069429,-0.0206,-0.12222,-0.10086,-0.057832,0.045319,0.029145,0.056306
-0.056611,-0.030976,-0.074311,-0.067597,-0.049287,0.017853,0.024262,0.037079
-0.027008,-0.052949,-0.062409,-0.088655,-0.0041199,-0.025788,-0.024567,0.032807
-0.0047303,-0.026703,-0.051118,-0.099336,-0.0019837,0.0013733,-0.0068666,0.063325
-0.0074769,-0.050202,-0.02884,-0.061799,-0.024567,0.036774,0.035554,0.042267
0.018158,-0.066682,-0.0053407,-0.040131,0.009308,0.029145,0.052338,0.0016785
0.022736,-0.083772,0.0083925,-0.045319,0.059358,0.0038148,0.056001,-0.023651
0.035859,-0.10575,0.0056458,-0.042267,0.049287,0.023957,0.062104,-0.030976
0.055695,-0.12253,-0.022126,-0.045014,0.046235,0.015106,0.03006,-0.021515
0.019989,-0.092317,-0.014496,-0.049592,0.04593,-0.018769,-0.24125,-0.074006
0.044099,-0.10971,-0.018158,-0.055695,0.040131,0.0053407,-0.25772,-0.11215
0.084688,-0.090486,-0.05417,-0.069734,0.02945,0.040742,0.10422,-0.094453
0.031586,-0.020905,-0.12253,-0.087739,0.02945,0.01297,0.025483,-0.09781
-0.017548,0.015412,-0.12161,-0.096284,0.0041199,0.0065614,0.016022,-0.059968
-0.081636,0.029755,-0.078889,-0.093233,0.0099184,-0.019684,0.066377,-0.0041199
-0.12039,0.045319,-0.13138,-0.11887,0.010834,-0.055085,0.037385,0.032807
-0.13809,0.057527,-0.099336,-0.10391,-0.032197,-0.0038148,0.024872,0.084688
-0.1561,0.05417,-0.084382,-0.098726,-0.047456,0.014496,0.0047303,0.098116
-0.14542,0.06363,-0.10666,-0.1207,-0.041047,0.015412,0.033417,0.0795
-0.096284,-0.022126,-0.060273,-0.095064,-0.040742,0.027924,0.067597,0.096895
-0.067903,-0.057832,-0.050202,-0.065766,-0.033417,0.02884,0.14481,0.10605
-0.048676,-0.08072,-0.0090028,-0.051118,-0.0047303,0.035248,0.35019,0.095369
0.035859,-0.14572,0.041657,-0.0047303,0.025483,0.013275,0.43168,0.074311
0.063325,-0.11887,0.00076295,-0.0022889,0.061799,-0.0071717,0.10849,0.024872
0.044099,-0.10239,-0.0080873,-0.061799,0.10178,-0.073091,-0.95018,-0.07126
0.059358,-0.14878,-0.016632,-0.06302,0.083162,-0.10208,-0.66514,-0.022126
0.029755,-0.082551,-0.031586,-0.078889,0.066682,0.019379,0.036774,-0.038911
-0.059052,-0.022126,-0.048981,-0.084382,0.033417,0.053254,0.078584,-0.11521
-0.045014,-0.030365,-0.075227,-0.095369,0.005951,0.032807,0.099031,-0.040742
-0.026703,-0.0022889,-0.10117,-0.10239,0.0013733,0.030976,0.19272,0.030976
-0.048676,0.034028,-0.12619,-0.10056,-0.016327,0.02884,0.08835,0.026093
-0.078279,0.072175,-0.12711,-0.090486,-0.030976,0.040742,0.098726,0.033112
-0.064546,0.081331,-0.08072,-0.10452,-0.025483,0.021515,0.081941,0.063325
-0.065766,0.12192,-0.099336,-0.09781,-0.024262,0.031281,0.069123,0.068513
-0.040742,0.01236,-0.095369,-0.11124,-0.039216,0.051728,0.11032,0.056001
0.005951,-0.088045,-0.070039,-0.068513,-0.02121,0.002594,-0.024567,0.084382
-0.016632,-0.042267,-0.052644,-0.072175,0.015106,-0.035859,-0.093538,0.030976
-0.028229,-0.047456,-0.034943,-0.062409,0.0086976,-0.035554,-0.023346,0.013275
0.0074769,-0.077974,-0.016022,-0.053254,0.011444,-0.045624,-0.1146,0.017548
0.057832,-0.12863,0.023651,-0.046235,0.035248,0.02945,0.092317,-0.014801
0.057832,-0.14054,-0.0056458,-0.035248,0.043488,0.041352,0.15549,-0.039216
0.032807,-0.12833,-0.023651,-0.042267,0.045014,-0.0038148,-0.021515,-0.041047
0.041047,-0.11582,-0.024872,-0.048371,0.055085,-0.0053407,-0.0047303,-0.081025
-0.00045777,-0.092012,-0.0077821,-0.066682,0.067597,0.024567,0.00076295,-0.11368
-0.035554,-0.058747,-0.045014,-0.059663,0.041352,0.049287,0.023957,-0.084382
-0.051423,-0.031891,-0.077058,-0.074617,0.0080873,0.032502,0.032197,-0.055695
-0.079194,0.03006,-0.11215,-0.082856,0.0035096,0.016632,0.014801,-0.031586
-0.10727,0.057832,-0.11521,-0.11948,0.011444,-0.0041199,-0.013581,0.010529
-0.12924,0.065156,-0.12711,-0.11948,-0.0047303,-0.012665,-0.014191,0.050202
-0.12375,0.081941,-0.14054,-0.13962,-0.039521,-0.059358,-0.0083925,0.10422
-0.076753,0.062104,-0.12131,-0.14298,-0.055695,-0.040131,-0.015106,0.17838
-0.055085,-0.042267,-0.016327,-0.073396,-0.070649,0.065766,0.026093,0.12528
-0.048676,-0.022431,-0.092012,-0.06424,-0.039826,0.050507,0.059968,0.057832
-0.031586,-0.062715,0.016632,-0.03006,-0.0096132,0.035248,0.1088,0.033417
-0.023346,-0.056001,-0.030976,-0.050507,0.017548,0.023041,0.073701,0.027619
-0.021515,-0.074617,-0.022431,-0.068513,0.040131,0.018769,0.01297,0.032807
-0.0056458,-0.091707,-0.012665,-0.058137,0.012665,0.034028,-0.012055,0.017243
0.025483,-0.097505,-0.0019837,-0.036774,0.011444,0.016327,-0.019684,-0.048676
0.048371,-0.11185,-0.0016785,-0.048676,0.0383,0.0022889,-0.0047303,-0.038605
0.032807,-0.090791,-0.023041,-0.051728,0.062409,-0.00076295,0.0013733,-0.038605
0.03006,-0.053864,-0.051728,-0.028534,0.059358,0.020905,0.0050355,-0.066072
0.045014,-0.049897,-0.067903,-0.0086976,0.057832,0.030671,0.019074,-0.072175
0.013581,-0.041962,-0.087129,-0.15183,0.075837,-0.016022,-0.0096132,-0.08835
-0.021515,-0.018158,-0.094759,-0.13779,0.023346,-0.00015259,-0.013581,-0.078279
-0.052644,-0.026093,-0.08072,-0.08072,-0.036469,0.025483,-0.0056458,-0.049897
-0.08011,-0.014801,-0.11673,-0.099947,-0.014496,0.013886,0.012055,-0.014801
-0.10452,0.078584,-0.12619,-0.12253,-0.011139,-0.0013733,0.027924,0.12406
-0.11978,0.084077,-0.11276,-0.10483,-0.028229,-0.010224,0.042878,0.20737
-0.092012,0.065766,-0.091402,-0.11093,-0.045014,-0.0099184,0.022126,0.19089
-0.093233,0.02945,-0.055085,-0.10239,-0.025483,-0.011444,-0.035554,0.13016
-0.064851,-0.010224,-0.023041,-0.074922,-0.030671,0.05478,0.059663,0.096895
-0.022431,-0.074922,-0.015412,-0.066682,-0.039216,0.067292,0.10239,0.069429
0.019074,-0.10636,-0.032807,-0.039216,0.0065614,-0.0032044,0.041657,0.025177
0.039216,-0.11246,-0.00015259,-0.030365,0.044404,-0.0041199,0.047456,-0.035248
0.041657,-0.10452,-0.0041199,-0.022736,0.067597,0.009308,0.032197,-0.078889
0.047456,-0.12253,-0.029145,-0.033112,0.056001,0.00015259,-0.10391,-0.072175
0.017243,-0.11032,0.002594,-0.041657,0.062104,-0.030976,-0.16709,-0.075532
0.0032044,-0.091707,-0.016022,-0.059663,0.049287,-0.012055,0.079194,-0.076143
-0.020294,-0.06363,-0.04654,-0.081331,0.031891,0.02884,0.30747,-0.037385
-0.038605,-0.025483,-0.10697,-0.084688,0.02884,0.047456,0.26139,-0.023651
-0.048981,0.033112,-0.12985,-0.091402,-0.0035096,0.034333,-0.1265,-0.0206
-0.065461,0.048066,-0.12161,-0.11704,-0.018158,0.0053407,-0.29831,-0.015717
-0.074922,0.051728,-0.10636,-0.10727,-0.024567,-0.041657,-0.73259,-0.029145
-0.075227,0.042573,-0.11032,-0.10147,-0.034638,-0.023651,-0.060578,0.047761
-0.056611,0.024567,-0.091096,-0.11582,-0.031586,-0.020905,0.27207,0.075227
-0.062104,0.032502,-0.081025,-0.10452,-0.013581,-0.010224,0.066377,0.077974
-0.034943,-0.010224,-0.040742,-0.089876,-0.014191,0.010529,0.094759,0.092012
-0.010529,-0.058137,-0.03006,-0.0795,-0.0056458,0.013275,0.067597,0.068208
0.011749,-0.094453,-0.0068666,-0.052644,-0.0041199,0.019989,0.041352,0.025788
0.019379,-0.10758,-0.016022,-0.045319,0.0099184,0.014496,0.037079,0.0074769
0.026093,-0.095979,0.0035096,-0.036774,0.040436,-0.0053407,0.02945,-0.034943
0.034028,-0.10819,0.012055,-0.030365,0.054475,-0.0047303,0.023346,-0.057527
0.024262,-0.079805,-0.0038148,-0.037079,0.05417,0.015412,0.027008,-0.077058
0.033417,-0.084077,-0.011749,-0.059663,0.049287,0.024262,0.019684,-0.087434
0.010529,-0.052338,-0.051728,-0.083772,0.050507,0.01297,0.033417,-0.05478
-0.022736,-0.027619,-0.082246,-0.081331,0.042267,0.0047303,0.022126,-0.0041199
-0.065461,-0.014191,-0.11429,-0.094759,0.024872,0.016327,0.031281,0.046235
-0.12009,-0.012055,-0.12314,-0.11673,-0.00015259,0.030365,0.048066,0.07126
-0.10239,0.016632,-0.11734,-0.1207,-0.025483,0.044404,0.075227,0.083467
-0.099336,0.040436,-0.12711,-0.10666,-0.038605,0.049592,0.065461,0.08072
-0.10819,-0.034333,-0.10941,-0.096284,-0.042878,0.038911,0.061189,0.065156
-0.095674,0.030365,-0.10025,-0.094453,-0.043488,0.020905,0.032197,0.051423
-0.074617,0.021515,-0.068818,-0.071565,-0.026398,0.024567,0.034943,0.057832
-0.040436,0.017853,-0.032502,-0.061799,-0.012665,0.023346,0.076753,0.045319
-0.027619,0.022431,-0.0044251,-0.064851,0.0065614,0.002594,0.047456,0.022736
-0.0028992,-0.072175,0.02945,-0.057527,0.02182,0.0090028,0.037079,0.027924
0.056611,-0.14664,0.025788,-0.027619,0.013581,-0.0086976,-0.10025,0.0077821
0.07187,-0.15396,-0.014801,-0.02884,0.034333,-0.009308,-0.32609,-0.063325
0.051423,-0.085908,-0.017853,-0.035554,0.066377,0.025177,0.016632,-0.053559
0.051423,-0.047456,-0.020294,-0.030671,0.06302,0.019989,0.020294,-0.037079
0.035554,-0.081331,-0.037995,-0.047761,0.05539,0.010834,-0.045014,-0.058747
0.035248,-0.10269,-0.056306,-0.069429,0.057527,-0.0010681,0.059663,-0.077974
0.031891,-0.0383,-0.083162,-0.078279,0.037385,-0.00076295,0.051423,-0.048371
-0.0010681,-0.0016785,-0.11154,-0.089876,0.016632,-0.005951,0.060578,-0.017243
-0.08896,0.0383,-0.13382,-0.11643,-0.00076295,-0.023346,0.055695,0.01297
-0.12375,0.056001,-0.12619,-0.12467,-0.0074769,-0.025177,0.032197,0.032197
-0.15549,0.056611,-0.09659,-0.11124,-0.041047,0.012055,0.016938,0.060578
-0.15,0.044404,-0.092622,-0.11337,-0.054475,0.019989,0.019379,0.089265
-0.15091,0.066072,-0.11856,-0.10513,-0.052949,0.023346,0.011749,0.10544
-0.13199,0.031586,-0.070649,-0.1091,-0.047456,0.026093,0.017548,0.1268
-0.083467,0.0013733,-0.045014,-0.09781,-0.038605,0.014801,0.010834,0.086519
-0.031586,-0.042573,-0.048371,-0.068208,-0.030671,0.034638,0.02182,0.069734
0.031891,-0.12558,0.034028,-0.030671,-0.0032044,0.035554,0.0383,0.047761
0.075837,-0.18204,0.049897,-0.0050355,0.042267,0.01297,0.023346,-0.014801
0.10239,-0.21286,0.080415,0.042573,0.10819,-0.03769,-0.026703,-0.086213
0.070649,-0.10971,-0.050202,-0.069429,0.14389,-0.09659,-0.10697,-0.09781
0.043183,-0.08011,-0.045624,-0.074311,0.091402,-0.017548,-0.01297,-0.052033
0.036164,-0.084382,-0.053254,-0.066682,0.023651,0.04715,0.10391,-0.049592
-0.0056458,-0.02945,-0.066377,-0.082246,0.02945,0.030365,-0.00076295,-0.081941
-0.0086976,-0.01236,-0.099031,-0.079194,0.0038148,0.031586,-0.15885,-0.058137
-0.04654,0.031281,-0.1384,-0.11246,-0.0062562,0.016632,-0.078889,-0.018769
-0.073091,0.056001,-0.11917,-0.12284,-0.015717,0.023041,0.1387,0.029145
-0.096895,0.067597,-0.12375,-0.13046,-0.027619,0.012665,0.1384,0.066682
-0.10361,0.069123,-0.1088,-0.11917,-0.048676,0.0065614,0.02182,0.098116
-0.09781,0.068513,-0.084688,-0.10575,-0.060883,0.040131,-0.059052,0.11246
-0.0795,0.026398,-0.067292,-0.08957,-0.043488,0.045014,0.048066,0.040436
-0.07187,0.0019837,-0.092622,-0.078889,-0.014496,-0.0053407,0.016632,-0.010529
-0.027008,-0.054475,-0.0065614,-0.056611,0.0013733,-0.0077821,-0.0032044,0.01297
0.010529,-0.070954,-0.0053407,-0.060578,0.02121,-0.0032044,0.047761,0.037385
0.016632,-0.11368,0.005951,-0.038911,0.02121,0.033112,0.085908,-0.00015259
0.045319,-0.15824,-0.0053407,-0.046235,0.015412,0.041352,0.013886,-0.038911
0.11032,-0.2385,0.041047,-0.041352,0.025788,0.0041199,-0.043183,-0.0065614
0.12314,-0.25193,0.026398,-0.026398,0.048371,-0.020905,-0.10147,-0.002594
0.043488,-0.12222,-0.034943,-0.055085,0.073091,-0.033417,-0.085908,-0.040742
0.0032044,-0.027924,-0.060578,-0.052949,0.076448,-0.019074,0.0050355,-0.045014
