-0.015412,0.0056458,-0.041962,-0.048371,0.033417,0.018158,0.02121,-0.073091
-0.036469,-0.012665,-0.075837,-0.068818,0.0383,0.032197,0.063935,-0.056001
-0.064546,-0.022431,-0.1091,-0.027314,0.023041,0.0062562,0.043793,-0.029145
-0.043183,-0.017548,-0.14389,-0.098726,0.016938,0.033112,0.086519,0.048066
-0.052949,-0.014496,-0.12741,-0.1265,0.01297,0.036164,0.086213,0.098421
-0.048981,-0.016327,-0.16068,-0.14755,-0.036774,-0.016938,0.034333,0.053559
-0.049592,0.0071717,-0.13901,-0.14939,-0.039216,-0.054475,-0.065766,0.07248
-0.055695,0.041657,-0.099641,0.0050355,-0.041352,-0.050507,-0.29282,0.043793
-0.015412,0.034333,-0.076448,0.081025,-0.033417,-0.017243,-0.14542,0.065461
-0.051423,0.037995,-0.046845,-0.22812,0.10086,-0.091402,-0.030671,0.0010681
-0.016327,-0.12039,0.013886,-0.070344,0.02182,-0.027314,-0.055695,-0.010529
-0.0071717,-0.025483,0.0077821,-0.18479,-0.069123,0.06363,0.039521,0.065156
0.0028992,-0.055695,0.029755,0.0065614,-0.00015259,0.039216,0.065461,0.029145
0.02121,-0.084077,-0.0099184,-0.056916,-0.024872,0.059663,0.04715,-0.0050355
0.023041,-0.11398,-0.0044251,-0.08957,0.056306,0.0041199,0.018158,-0.037385
0.046235,-0.14054,0.026703,-0.03769,0.030976,0.022736,0.037079,-0.060883
0.099031,-0.20157,0.0074769,0.072175,0.023651,0.041047,0.056611,-0.051118
0.037995,-0.13352,-0.019684,-0.11673,0.099641,-0.019684,-0.010224,-0.094453
0.0013733,-0.073396,-0.077363,-0.087739,0.041962,-0.0041199,-0.0013733,-0.079805
-0.032502,-0.0077821,-0.14878,-0.091402,-0.012055,0.013275,0.061799,-0.04715
-0.078889,0.10452,-0.14725,-0.093538,0.04715,-0.0068666,0.089876,-0.037385
-0.098116,0.073396,-0.13291,-0.10666,-0.0074769,0.051423,0.12284,0.041352
-0.11795,0.093843,-0.15763,-0.060578,-0.02945,0.010529,0.077668,0.032807
-0.094453,0.051423,-0.12314,-0.15915,-0.011444,-0.044099,-0.14084,0.031281
-0.099947,0.074617,-0.10269,-0.14206,-0.0795,-0.009308,-0.23972,0.051728
-0.086824,0.040131,-0.10208,-0.10086,-0.15213,0.037385,-0.059663,0.094453
-0.047761,-0.02945,-0.01236,-0.094453,-0.085298,0.018769,0.068208,0.12863
-0.04593,-0.057832,-0.012665,-0.03006,-0.0013733,0.0080873,0.090486,0.11368
-0.0044251,-0.079805,0.022431,0.017853,0.051728,-0.01297,0.079194,0.10758
-0.013275,-0.053864,0.0083925,-0.12436,0.18326,-0.056306,0.044099,0.002594
-0.010529,-0.10697,0.03006,-0.054475,0.21836,-0.0068666,0.041047,-0.056001
0.021515,-0.15061,0.032807,-0.023041,-0.050507,0.10544,0.040131,-0.039826
0.033112,-0.16739,0.012665,-0.034333,-0.025177,0.048371,-0.0047303,-0.065461
0.030365,-0.13565,-0.0047303,-0.029145,0.022126,0.034638,-0.013581,-0.051423
0.0090028,-0.12375,-0.063325,-0.042267,0.042267,0.028229,-0.030365,-0.041962
0.0053407,-0.064851,-0.11093,-0.037079,0.04715,0.005951,-0.0013733,-0.011444
-0.066987,0.065461,-0.12741,-0.12802,0.042878,0.010529,0.045319,0.0050355
-0.046845,0.036469,-0.15396,-0.080415,-0.024262,0.041657,0.17563,0.032197
-0.051423,0.084382,-0.15457,-0.18509,-0.038911,0.0044251,0.11154,0.028229
-0.026398,0.060273,-0.15061,-0.16281,-0.053254,0.00045777,-0.033722,0.0035096
-0.063325,0.039826,-0.08835,-0.066987,-0.087129,0.016327,0.051728,0.01297
-0.061494,0.057527,-0.11032,-0.057527,-0.042878,-0.016327,0.067292,0.063325
-0.059663,0.022431,-0.069429,-0.075837,0.031586,-0.082246,-0.23148,0.053864
-0.062104,-0.013886,-0.025788,-0.15457,0.035248,-0.078584,-0.18326,0.04593
-0.0795,-0.014801,0.026093,-0.066682,-0.0090028,0.019989,0.041047,0.037385
0.025483,-0.17746,0.048371,0.040131,-0.056611,0.092927,0.091707,0.10361
-0.033417,-0.070344,0.028534,-0.059052,0.062104,0.011444,-0.010224,0.0032044
0.016632,-0.13993,-0.022431,-0.016327,0.0795,-0.012665,-0.13413,-0.056916
0.020905,-0.1619,0.034028,-0.030976,0.019684,0.034638,-0.096895,-0.038605
-0.018158,-0.092927,-0.035554,-0.13382,0.07248,0.0044251,-0.021515,-0.12314
-0.01297,-0.013886,-0.078584,-0.083162,-0.0056458,0.043183,0.079194,-0.033112
0.019379,-0.086213,-0.061799,-0.027314,-0.028534,0.061189,0.095674,0.015106
-0.013275,-0.086824,-0.067292,-0.077363,0.086213,0.035554,0.051728,-0.01236
-0.051423,-0.034333,-0.11551,-0.08835,0.067903,0.00015259,0.025177,-0.042878
-0.069429,0.021515,-0.14939,-0.064851,-0.030365,-0.0035096,0.048981,-0.014191
-0.049897,0.017853,-0.16464,-0.13382,-0.02121,-0.016938,0.04593,0.039826
-0.097505,0.11734,-0.14115,-0.11734,-0.018158,-0.014801,0.010834,0.027619
-0.099947,0.15457,-0.16861,-0.18479,-0.071565,-0.0028992,-0.011139,0.077363
-0.072786,0.08072,-0.076753,-0.047761,-0.045624,0.0086976,-0.0050355,0.10788
-0.017243,-0.032807,0.00045777,-0.12955,-0.018463,-0.038911,0.024872,0.10849
-0.012665,-0.099947,0.049897,-0.031281,0.0206,-0.072175,0.031586,0.055085
0.02121,-0.15976,0.0074769,0.040742,-0.035859,0.06302,0.098726,0.025483
0.048981,-0.17472,0.034028,-0.055695,0.02182,0.017243,0.06363,0.017853
0.040436,-0.10697,0.039521,0.058747,0.08835,-0.0080873,0.030365,-0.053559
0.07248,-0.10269,-0.034943,-0.08957,0.059968,0.0090028,0.041352,-0.099641
0.024872,0.0038148,-0.027008,-0.19272,0.019684,0.0047303,0.03006,-0.10605
-0.010224,-0.048066,0.0044251,-0.073396,-0.00045777,0.015106,-0.022126,-0.10361
-0.0083925,-0.081331,-0.048066,-0.014801,0.04593,-0.012055,-0.084993,-0.014801
-0.03769,-0.06424,-0.077363,-0.046235,0.057221,-0.069429,-0.2388,-0.0065614
-0.086213,-0.030365,-0.11307,-0.11337,0.019989,-0.031281,-0.15671,-0.024872
-0.073091,-0.052644,-0.13565,-0.103,-0.037385,0.084993,0.10758,0.035859
-0.069123,-0.010529,-0.14328,-0.10147,-0.027619,0.19211,0.10697,0.047456
-0.091707,0.08835,-0.14389,-0.083467,-0.039826,0.35874,0.039826,0.043183
-0.11765,0.12375,-0.1326,-0.13474,-0.0013733,-0.011444,-0.013581,0.062104
-0.1091,0.08835,-0.11307,-0.10544,0.0206,-0.51499,0.0041199,0.099641
-0.069429,0.02182,-0.064851,-0.073701,-0.034943,-0.05539,0.065766,0.094453
-0.059052,0.013581,-0.023041,-0.10636,-0.019379,0.034638,0.056001,0.085908
0.015106,-0.10239,0.023957,0.020905,-0.024262,0.019074,0.063325,0.074617
0.029755,-0.10666,0.022736,0.0099184,-0.0032044,0.039216,0.050202,0.051118
0.08011,-0.17746,0.033417,-0.02884,0.074311,0.016938,0.021515,0.0010681
0.056001,-0.095674,0.028229,-0.18143,0.076143,0.018463,0.019684,-0.038911
0.037385,-0.10239,0.0013733,0.013275,0.013275,0.024262,0.005951,-0.05478
0.024262,-0.10361,-0.024262,-0.030976,-0.0080873,0.017243,-0.027008,-0.086213
0.0074769,-0.083467,-0.031891,-0.11124,0.074311,0.00015259,-0.060578,-0.11154
0.0065614,-0.079805,-0.062715,-0.06424,0.025177,0.038605,-0.018769,-0.081941
-0.041352,-0.062715,-0.094148,-0.045319,0.022736,0.027008,0.0041199,-0.052949
-0.065461,0.032197,-0.12955,-0.021515,0.039521,0.00015259,-0.00045777,-0.014496
-0.087739,0.07187,-0.1677,-0.13107,0.022126,-0.0086976,0.019074,0.019074
-0.10056,0.11124,-0.16068,-0.21714,0.013581,-0.0071717,0.027314,-0.0053407
-0.10117,0.087739,-0.14389,-0.1265,-0.058442,0.011444,0.022126,0.036164
-0.063935,0.048066,-0.12039,-0.087129,-0.077363,0.016632,0.023346,0.089876
-0.062715,0.013275,-0.082246,-0.14572,-0.024262,-0.013581,-0.0028992,0.060578
-0.11337,0.061494,-0.041962,-0.13107,-0.013275,0.0013733,-0.0050355,0.046235
-0.011139,-0.14817,0.011749,0.090791,-0.072175,0.076753,0.077668,0.13382
0.026703,-0.11398,-0.0038148,-0.068818,0.015412,0.0068666,0.074311,0.11032
-0.0053407,-0.069734,0.015717,-0.16251,0.11856,-0.050507,-0.0035096,-0.0086976
-0.0056458,-0.15,-0.0044251,-0.085298,-0.024567,0.082551,0.057832,-0.00076295
0.02884,-0.14755,0.009308,-0.033722,-0.051423,0.11002,0.077363,0.053864
0.077668,-0.15824,0.056611,-0.0013733,0.043183,0.03006,0.0013733,-0.011444
0.016632,-0.059358,-0.015717,-0.0074769,0.069123,0.010529,-0.028534,-0.060578
0.018158,-0.081636,-0.014801,0.063325,0.041352,-0.015717,-0.036774,-0.083162
-0.016327,-0.023957,-0.056611,-0.32822,0.10422,-0.061799,-0.039521,-0.090181
-0.070649,0.043488,-0.13474,-0.083467,0.076448,0.010224,0.0010681,-0.052644
-0.037079,-0.026093,-0.13291,0.023651,-0.038605,0.031281,0.031586,-0.0090028
-0.091096,0.091402,-0.18296,-0.077363,0.0010681,-0.027314,-0.010529,0.021515
-0.10025,0.063325,-0.12528,-0.24308,0.02945,-0.035554,-0.016938,0.043793
-0.040742,-0.032502,-0.11215,-0.027619,-0.09781,0.031281,0.025177,0.10849
-0.060883,0.048066,-0.14572,-0.10239,-0.061494,0.0206,-0.0056458,0.08072
-0.070649,0.062715,-0.08896,-0.14359,0.017853,-0.025788,-0.040742,0.048371
-0.064851,-0.0044251,-0.0206,-0.040131,-0.0206,-0.009308,-0.0022889,0.059968
-0.022126,-0.052644,-0.033722,-0.077668,-0.0206,0.024567,0.032807,0.040436
0.028229,-0.08957,0.01236,-0.022736,0.017243,0.03006,0.069123,0.033417
0.0056458,-0.047761,0.028534,-0.058137,0.072175,-0.019684,0.04715,-0.011444
0.0074769,-0.10941,0.039826,-0.12711,0.072175,-0.041352,0.081636,-0.025483
0.035554,-0.16159,0.048676,0.06302,-0.014191,-0.0019837,0.002594,-0.023346
0.026703,-0.11948,-0.027619,-0.083467,0.094453,-0.067597,-0.10819,-0.095369
0.020294,-0.1268,-0.0041199,-0.15335,0.069429,0.039216,-0.031891,-0.069429
-0.018158,-0.056611,-0.063325,-0.033417,-0.08957,0.19211,0.052949,-0.043488
-0.026703,-0.0062562,-0.11337,0.022126,-0.051118,0.094453,0.018158,-0.029755
-0.057527,0.0383,-0.12375,-0.15,0.030976,-0.028229,-0.057527,-0.025788
-0.061494,0.017548,-0.14176,-0.066682,0.0068666,0.025177,0.014191,0.035859
-0.045014,0.026703,-0.13321,-0.093538,0.041962,0.009308,0.067292,0.057832
-0.065461,0.039521,-0.10422,-0.14572,0.0077821,-0.031891,0.01297,0.033417
-0.067292,-0.026093,-0.095979,-0.14755,-0.048981,-0.019074,0.0028992,0.035859
-0.073091,-0.036469,-0.11917,-0.091707,-0.057221,-0.0080873,0.015717,0.061189
-0.053559,0.028534,-0.1033,-0.079805,-0.049897,0.011444,0.064546,0.047761
-0.061494,0.047456,-0.02884,-0.10086,-0.0074769,-0.010834,-0.0080873,0.029755
-0.012055,-0.062715,-0.011444,0.0090028,-0.0019837,-0.019684,-0.23026,0.023957
0.024872,-0.098726,0.028229,0.017548,0.035248,-0.023346,-0.07126,0.066377
-0.05478,-0.044404,0.019684,-0.12192,0.103,-0.02182,0.047761,-0.057832
-0.0074769,-0.098116,0.010834,0.047761,-0.0096132,0.088655,0.10208,-0.01297
0.033722,-0.15824,0.020294,-0.10849,-0.0053407,0.084688,0.13291,0.057527
0.034028,-0.13443,0.0047303,-0.18326,0.075227,0.018158,0.026703,-0.051423
0.0080873,-0.11826,-0.018769,-0.032502,0.014801,0.024567,0.0086976,-0.076143
-0.0062562,-0.068818,-0.070039,-0.030365,-0.0041199,0.023957,0.022736,-0.06302
-0.031281,-0.044404,-0.10544,-0.064546,0.061494,-0.022736,0.016632,-0.053254
-0.034333,0.04715,-0.13779,-0.05417,0.037995,-0.019989,0.0016785,-0.028534
-0.079805,0.1207,-0.17014,-0.10941,0.013581,-0.024262,0.014191,0.035859
-0.13321,0.17472,-0.18021,-0.16342,0.02121,-0.033112,-0.00045777,0.056611
-0.10727,0.092622,-0.11917,-0.11063,-0.035554,-0.015717,0.031891,0.10788
-0.095369,0.015412,-0.083467,-0.10391,-0.049287,0.0065614,0.063325,0.13993
-0.10422,-0.0099184,-0.072175,-0.13565,0.015106,-0.021515,0.0383,0.11185
-0.05539,-0.11551,-0.014801,-0.014801,-0.031586,0.036164,0.077363,0.12009
-0.0022889,-0.14054,-0.0206,-0.08072,-0.022736,0.058747,0.086824,0.062104
0.010834,-0.12985,0.0086976,-0.094759,0.02182,0.03006,0.02121,-0.019684
0.040436,-0.11551,-0.0019837,-0.046845,-0.0068666,0.065461,0.025483,-0.0086976
0.079194,-0.077668,-0.0053407,-0.055695,-0.013275,0.077363,0.010529,0.0038148
0.090181,-0.10086,0.032502,-0.0022889,0.023041,0.030976,-0.05539,-0.075532
0.049592,-0.074311,0.014801,-0.025177,0.082246,-0.041657,-0.093233,-0.13809
0.028229,-0.095369,-0.020905,-0.046845,0.10208,-0.11978,-0.073091,-0.12558
0.0038148,-0.08957,-0.043793,-0.12192,0.011139,0.0090028,0.051423,-0.077974
0.0099184,-0.082246,-0.061189,-0.010224,-0.08072,0.068818,0.08072,-0.032807
-0.013275,-0.062409,-0.13443,-0.099336,-0.04715,0.027924,0.11185,-0.024872
-0.074617,0.016022,-0.13748,-0.081331,0.03006,0.022736,0.11246,0.002594
-0.095979,0.095979,-0.14481,-0.18021,0.037079,0.0041199,-0.085298,0.082856
-0.12741,0.13199,-0.13382,-0.103,0.082551,-0.031891,-0.2089,0.088045
-0.13046,0.11063,-0.15488,-0.1207,0.17441,-0.07248,-0.033722,0.078279
-0.047761,0.019684,-0.084077,0.01297,-0.025177,0.033417,0.055695,0.065766
-0.077058,0.020294,-0.081025,-0.16495,-0.08072,-0.0080873,-0.043793,-0.0010681
-0.085603,-0.028534,-0.016327,-0.11582,0.0080873,-0.10971,-0.13962,-0.01236
-0.095369,-0.014496,-0.017853,-0.10544,-0.067597,0.029145,-0.15702,0.047761
-0.0090028,-0.11948,0.039826,-0.060273,-0.066987,0.06363,-0.0068666,0.070649
0.050507,-0.14206,0.028534,-0.010529,-0.034333,0.045319,0.12833,0.054475
0.027924,-0.095369,0.013886,-0.032197,0.030365,0.048676,0.095369,-0.022431
0.054475,-0.16892,0.018463,0.06424,0.047761,0.058442,0.10666,-0.027314
0.056001,-0.083772,-0.034333,-0.056916,0.060273,0.030976,0.080415,-0.029145
0.02182,-0.082246,-0.0086976,-0.11246,0.056306,-0.0019837,0.026093,-0.04715
0.029145,-0.10178,-0.041047,-0.030976,-0.059663,0.034333,0.025177,-0.025483
-0.0086976,-0.050202,-0.084688,-0.062715,0.0086976,0.018158,0.0050355,-0.037079
-0.039521,-0.0080873,-0.14725,-0.14206,0.066072,-0.020905,0.0096132,-0.025177
-0.065156,0.0047303,-0.12284,-0.1326,0.019074,-0.0099184,0.03006,0.0090028
-0.081941,0.10575,-0.15091,-0.10147,-0.051728,0.0086976,0.034028,0.02884
-0.084077,0.051728,-0.14328,-0.10239,-0.020294,-0.030365,0.029145,0.02884
-0.10147,0.061189,-0.11826,-0.099947,-0.019074,-0.0050355,0.066377,0.039216
-0.08835,0.033722,-0.11124,-0.11521,-0.02121,0.014496,0.095979,0.092317
-0.081941,0.02945,-0.064546,-0.076448,-0.023346,-0.0013733,-0.10544,0.056306
-0.057527,-0.01236,-0.034333,-0.08072,-0.014191,-0.023346,-0.23239,0.028229
-0.041657,-0.040436,-0.014191,-0.1149,-0.00015259,0.032807,0.061189,0.058442
-0.0062562,-0.06424,0.023651,-0.00015259,-0.019684,0.078889,0.15854,0.069734
0.041352,-0.14298,0.047456,0.079194,-0.00015259,0.046235,0.062104,0.025177
0.052949,-0.16251,0.04593,-0.08896,0.033417,-0.018158,0.048371,0.0096132
0.041657,-0.085908,-0.03006,-0.19059,0.12314,-0.10056,0.010529,-0.04593
-0.0080873,-0.093538,-0.00076295,-0.024872,0.069734,0.022736,0.0071717,-0.070039
0.026703,-0.076753,-0.036164,0.0074769,-0.00076295,0.11643,-0.00076295,-0.043488
0.0028992,-0.058137,-0.053864,0.017548,0.02945,0.13779,-0.035859,-0.045624
0.023346,-0.093538,-0.074311,-0.1973,0.050507,0.33585,-0.043183,-0.059968
-0.018769,-0.014496,-0.11978,-0.10269,0.069734,0.10239,-0.044709,-0.035859
-0.082856,0.029145,-0.13291,-0.11856,0.041047,-0.5626,-0.031281,-0.041352
-0.099031,0.012055,-0.12772,-0.18021,-0.0080873,-0.18784,0.018769,0.027619
-0.10971,0.035248,-0.11154,-0.091707,-0.058442,0.034028,0.057527,0.11368
-0.10697,0.059663,-0.12833,-0.066377,-0.065461,0.005951,0.062409,0.12894
-0.095674,0.070649,-0.11887,-0.11582,-0.029755,0.019074,0.08072,0.12039
-0.031891,0.016632,-0.10269,-0.064546,-0.020905,0.030365,0.051728,0.080415
-0.025788,0.013275,-0.013581,-0.072786,-0.024872,0.044709,0.042267,0.094453
0.0016785,-0.048981,0.031586,-0.033417,-0.002594,0.039521,0.045624,0.064546
0.061189,-0.1564,0.005951,-0.014191,0.016938,0.012665,0.025788,-0.032807
0.056306,-0.16434,0.037385,-0.0086976,0.049897,0.0044251,0.050202,-0.11185
0.011444,-0.11795,0.037995,-0.072786,0.082551,-0.0022889,0.059358,-0.13382
-0.014191,-0.042573,-0.0038148,-0.06363,0.040436,0.031586,0.066377,-0.10391
-0.014191,-0.08835,0.0080873,0.060273,0.0099184,0.058137,-0.019074,-0.047456
0.054475,-0.1561,-0.052949,-0.075532,0.058137,0.0080873,-0.26963,-0.057221
-0.0062562,-0.036164,-0.082551,-0.19486,0.12009,-0.024872,-0.20859,-0.099336
-0.025483,-0.019379,-0.082551,-0.12253,-0.024262,0.034638,0.074311,0.018158
-0.034638,0.031281,-0.15763,-0.059358,-0.051728,0.034943,0.070039,0.12528
-0.070954,0.053559,-0.14969,-0.030365,0.00045777,0.0013733,0.027619,0.092927
-0.08896,0.067597,-0.14267,-0.16007,0.011139,-0.0077821,0.009308,0.066072
-0.10544,0.10178,-0.1384,-0.19486,-0.020294,-0.0019837,0.00045777,0.069734
-0.069429,-0.00015259,-0.084688,-0.06302,-0.077974,-0.0019837,0.014191,0.067903
-0.077668,0.026398,-0.084993,-0.10513,-0.028229,-0.023346,0.016938,0.056306
-0.075227,-0.00045777,-0.045014,-0.074311,-0.018463,-0.013886,0.032807,0.051118
-0.067903,-0.005951,-0.018463,-0.047456,-0.023651,0.013275,0.054475,0.048066
0.017548,-0.10391,0.015412,-0.018158,0.016022,0.012055,0.044404,0.034028
0.017548,-0.11795,0.03769,-0.013275,0.033722,0.03006,0.0383,-0.0065614
0.0065614,-0.091707,-0.0035096,-0.085298,0.067597,0.026398,0.073701,-0.01297
0.032807,-0.092622,0.022126,-0.017548,0.057832,0.033112,0.065461,-0.0065614
0.055085,-0.13199,-0.0028992,-0.070344,0.041352,0.024262,0.043793,-0.051728
0.035554,-0.14481,0.044404,-0.10147,0.051423,0.019074,0.044404,-0.081636
0.0068666,-0.13352,-0.078279,-0.036774,0.0041199,0.044404,0.019074,-0.060578
0.00045777,-0.090181,-0.10025,-0.0065614,0.0041199,0.04715,-0.0074769,-0.030365
-0.031586,0.0041199,-0.10727,-0.074922,0.039216,-0.022736,-0.10361,-0.052033
-0.10239,0.11002,-0.17197,-0.25711,0.031586,-0.089265,-0.20462,-0.077363
-0.15,0.13718,-0.12467,-0.10941,0.026093,-0.053559,-0.12375,0.011139
-0.11917,0.087129,-0.14176,-0.096284,-0.024262,0.047456,0.015106,0.13382
-0.13657,0.092012,-0.13931,-0.14267,0.045624,-0.069429,0.023041,0.099031
-0.079805,-0.0206,-0.092927,0.09781,-0.049897,-0.035859,0.032197,0.085298
-0.031891,-0.026398,-0.057832,-0.39933,-0.089265,0.08072,0.074617,0.097505
-0.054475,-0.067903,0.0096132,-0.070649,-0.091096,0.083467,0.066072,0.044404
0.030976,-0.13443,0.00045777,0.02884,-0.14145,0.12131,0.10575,0.070649
0.034943,-0.088045,0.0077821,-0.03769,0.051728,0.0206,0.092012,0.046845
0.0019837,-0.092317,0.028229,-0.036774,0.065461,0.0028992,0.025177,-0.027619
0.014801,-0.10178,0.017853,-0.030365,0.027008,0.036774,0.037995,0.0080873
0.095979,-0.18448,0.032502,0.022126,0.040131,0.027314,0.033722,-0.00045777
0.056001,-0.067597,-0.021515,-0.032197,0.078584,-0.0099184,-0.026398,-0.10147
0.011444,-0.0086976,-0.043183,-0.068818,0.11429,-0.039826,-0.036774,-0.10849
-0.0041199,-0.030976,-0.082246,-0.084993,0.053559,-0.0038148,0.013886,-0.040436
-0.02945,0.0071717,-0.11154,-0.066987,0.031891,0.023041,0.033112,-0.016938
-0.036774,-0.018769,-0.12039,-0.1207,0.015106,0.022126,0.045319,0.0041199
-0.059663,-0.02884,-0.11032,-0.11124,-0.0044251,0.0062562,0.048066,0.010834
-0.068818,-0.043488,-0.13352,-0.096895,-0.0022889,-0.0086976,0.022736,0.019379
-0.08011,0.0083925,-0.15946,-0.15518,-0.010529,-0.018769,-0.0065614,0.020905
-0.063935,0.094148,-0.14969,-0.068513,-0.04593,0.0099184,0.025788,0.048981
-0.052644,0.075532,-0.078889,-0.11185,-0.038911,0.0010681,-0.094148,0.067597
-0.034943,0.02182,-0.052033,-0.053254,-0.0010681,-0.037385,-0.27268,0.02121
-0.048981,0.010529,-0.017853,-0.11856,-0.0032044,-0.010834,0.0035096,0.034333
-0.015106,-0.079805,0.035554,-0.032807,-0.0206,0.036774,0.13046,0.030365
0.0016785,-0.10208,0.039826,-0.033112,-0.02121,0.053254,0.103,0.041657
0.01297,-0.12253,-0.00045777,-0.058442,0.048981,0.01236,0.04593,0.0050355
0.042267,-0.17594,0.0096132,-0.019684,0.04715,0.017243,0.015412,-0.011444
0.026093,-0.14359,0.00076295,-0.050202,0.040131,-0.0050355,-0.02945,-0.016938
-0.013275,-0.069734,-0.0038148,-0.099641,0.085908,-0.023041,-0.11368,-0.088045
0.025177,-0.081636,-0.035859,0.043793,0.012665,0.041047,-0.023651,-0.025177
0.0028992,-0.023651,-0.085908,-0.12436,0.052949,0.042878,0.013581,-0.013275
-0.039826,0.017243,-0.11093,-0.051118,0.051423,0.015412,0.037385,-0.027008
-0.075227,0.022736,-0.11887,-0.092927,0.0013733,0.01236,0.094148,0.011749
-0.11765,0.076753,-0.14908,-0.21744,0.029145,-0.0077821,0.14267,0.0016785
-0.12467,0.06424,-0.12284,-0.099336,-0.062715,0.042267,0.086824,0.041962
-0.11551,0.067292,-0.12375,-0.082246,-0.062104,0.037079,-0.02121,0.086213
-0.099031,0.065461,-0.11643,-0.077668,-0.024872,0.005951,-0.0206,0.095674
-0.092012,0.04593,-0.13138,-0.075837,-0.035554,0.010529,0.017548,0.088655
-0.027008,0.00045777,-0.0028992,-0.13138,-0.032502,-0.005951,0.057527,0.099641
0.011139,-0.087434,-0.0077821,-0.037079,-0.022126,0.00015259,0.0383,0.06302
0.043488,-0.12955,-0.0080873,-0.014191,-0.0071717,0.011444,0.029145,0.025177
0.037385,-0.11673,0.026093,-0.10544,0.053864,-0.0056458,0.043793,-0.021515
0.0086976,-0.091707,0.017548,-0.086519,0.063935,0.016632,0.033722,-0.055085
0.017548,-0.12467,0.047761,-0.022126,-0.00045777,0.057221,0.029755,-0.028534
0.05539,-0.23148,0.030671,0.07126,0.051118,0.024262,-0.043488,-0.039826
0.0074769,-0.15152,-0.033722,-0.15396,0.09659,-0.0019837,-0.12009,-0.096284
-0.038911,-0.018463,-0.062715,-0.13169,0.049592,-0.0062562,-0.090791,-0.074617
0.010834,-0.015412,-0.074922,0.024872,-0.033722,-0.019074,0.052949,0.0041199
0.019989,-0.086519,-0.096284,-0.05539,0.037995,0.0044251,0.1564,-0.015717
-0.076143,0.063325,-0.16495,-0.12467,0.098421,-0.03006,0.11063,-0.051118
-0.074006,0.0795,-0.15702,-0.15274,-0.018463,0.026703,0.027314,0.042267
-0.094148,0.12009,-0.14908,-0.13596,-0.076753,0.050202,-0.17166,0.098421
-0.11551,0.084077,-0.084382,-0.019074,-0.035554,-0.014801,-0.25162,0.068513
-0.063325,0.029145,-0.12558,-0.091707,-0.013581,-0.027619,-0.065461,0.11276
-0.093843,0.059358,-0.078279,-0.23911,-0.023346,-0.014801,-0.035554,0.067597
-0.034333,-0.036774,-0.03006,-0.078584,-0.16403,0.079194,0.075837,0.098726
-0.020294,-0.081331,0.0083925,-0.12955,-0.10513,0.08835,0.14389,0.0795
-0.019074,-0.048981,-0.0090028,0.037995,0.045624,0.00015259,0.074311,0.012665
0.015717,-0.11734,0.052033,0.09781,0.096895,-0.022736,0.031891,-0.018463
0.10147,-0.24033,0.081025,-0.14481,0.19577,-0.04654,0.040436,-0.032807
0.06302,-0.1387,-0.024872,-0.044404,0.23697,-0.027619,-0.028229,-0.11124
0.023041,-0.075837,-0.024872,-0.077058,0.023651,0.022126,-0.036774,-0.096895
0.012055,-0.073396,-0.026398,-0.061494,-0.039216,0.016938,0.043488,-0.041962
0.0047303,-0.037995,-0.075837,-0.043488,-0.015717,0.031281,0.051423,-0.045014
-0.03769,-0.010834,-0.094759,-0.057527,0.013581,0.016632,0.033417,-0.05539
-0.079805,0.082551,-0.14115,-0.15702,-0.0056458,-0.022126,0.03769,-0.018463
-0.090791,0.056611,-0.14176,-0.083772,-0.027619,-0.07126,0.040131,0.034028
-0.079194,0.047761,-0.14115,-0.10239,-0.035248,-0.025483,-0.0086976,0.048066
-0.094148,0.065156,-0.13077,-0.059052,-0.035859,0.087739,-0.00015259,0.019379
-0.12009,0.067292,-0.11612,-0.12711,-0.061189,0.18906,0.051728,0.045624
-0.070039,-0.00045777,-0.076448,-0.049592,-0.11917,0.36515,0.05417,0.12284
-0.041962,-0.076143,-0.00045777,-0.16342,0.02945,0.032807,-0.031891,0.10483
-0.028534,-0.12253,-0.048981,-0.045014,0.085603,-0.4799,-0.014801,0.0795
0.00045777,-0.10025,-0.020294,-0.12863,-0.034638,-0.095369,0.022126,0.073396
0.05417,-0.083772,0.02945,0.009308,0.02121,-0.00015259,-0.010224,0.026093
0.036164,-0.034638,0.013886,-0.014191,0.052033,0.013886,-0.02121,-0.014191
0.019684,-0.093843,0.034333,-0.068818,0.052338,-0.013886,-0.029145,-0.056916
0.025788,-0.16495,0.022126,-0.0071717,0.039826,-0.017853,-0.014496,-0.046845
0.034333,-0.085908,-0.01297,-0.091096,0.041962,0.032197,0.011749,-0.025177
-0.0050355,-0.062104,-0.04593,-0.058442,0.075837,0.0041199,-0.0080873,-0.061189
-0.048371,-0.011749,-0.082856,-0.042878,0.016632,0.010529,0.0010681,-0.053864
-0.036469,-0.022431,-0.11765,-0.11276,0.031586,0.013886,0.026093,-0.052033
-0.072786,-0.017548,-0.10544,-0.1088,0.016022,0.012055,0.019379,-0.035248
-0.085603,0.062104,-0.15061,-0.11154,-0.020294,0.045624,0.051423,0.04715
-0.08957,0.074006,-0.14908,-0.068818,-0.050507,0.073396,0.086824,0.059052
-0.099947,0.078584,-0.13718,-0.20218,-0.014191,0.018463,0.056306,0.029145
-0.13046,0.10147,-0.10758,-0.12711,-0.055695,0.032502,0.041657,0.061494
-0.072175,0.012055,-0.07248,-0.081636,-0.035859,0.064546,0.084077,0.1265
-0.014191,-0.024872,-0.044099,-0.13321,0.0016785,0.058442,0.13107,0.18509
-0.014801,-0.078279,-0.010224,-0.043488,-0.014191,0.0090028,0.065766,0.074311
-0.0035096,-0.12009,0.010224,-0.016022,-0.024567,0.0062562,0.092622,0.022126
0.0028992,-0.11734,0.036469,-0.084993,0.03769,-0.010834,0.095369,-0.0206
0.044404,-0.17594,0.041047,0.034638,0.033722,-0.025788,-0.022126,-0.060578
0.039826,-0.12009,0.019684,-0.016938,0.036164,-0.013581,-0.34836,-0.067597
0.0383,-0.082246,-0.022126,-0.079194,0.1088,-0.041657,-0.48966,-0.13809
0.011444,-0.085908,-0.01236,-0.033112,0.050202,-0.0074769,-0.13596,-0.12924
0.019074,-0.09781,-0.034638,0.016938,0.017243,0.034943,0.090791,-0.053864
0.0074769,-0.076143,-0.10147,-0.14359,0.059968,-0.0056458,0.072786,-0.02945
-0.034638,-0.053559,-0.091096,-0.11551,0.052949,-0.013275,0.037995,-0.043488
0.023651,-0.086519,-0.13291,-0.018463,-0.038605,0.027314,0.045624,0.036164
-0.035554,0.064546,-0.15152,-0.15213,0.016938,-0.023346,-0.00076295,0.027314
-0.08011,0.14145,-0.1735,-0.099031,-0.00015259,0.0038148,-0.00076295,-0.0044251
-0.092317,0.091402,-0.11246,-0.093538,-0.071565,0.045319,0.07187,0.076448
-0.10849,0.086213,-0.09659,-0.11978,-0.030365,-0.011139,0.049287,0.082246
-0.081025,0.025788,-0.066987,-0.10544,-0.023651,-0.0041199,0.047761,0.10422
-0.021515,-0.042573,-0.073396,-0.12436,-0.049897,0.010224,0.050507,0.11063
-0.031586,-0.027924,0.0035096,-0.073396,-0.016938,0.014191,0.034943,0.019989
0.0019837,-0.11002,0.0071717,-0.035248,0.0019837,0.028534,0.045319,0.043488
0.030365,-0.11948,0.05417,-0.036774,0.009308,0.030365,0.058442,0.031586
0.030365,-0.16495,0.047761,0.010834,0.063935,0.00045777,0.011749,-0.059052
-0.012055,-0.060273,-0.010529,-0.032197,0.067597,0.022126,0.037079,-0.06363
-0.018158,-0.034638,-0.01236,-0.12558,0.041962,0.037995,0.058137,-0.060883
-0.00076295,-0.11826,-0.017853,0.028534,-0.002594,0.054475,0.047456,-0.0074769
0.005951,-0.094453,-0.067903,-0.032197,0.032807,0.052338,0.051728,0.036164
-0.026703,-0.032807,-0.093233,-0.082551,0.092012,0.014191,0.026703,0.0038148
-0.050813,0.031586,-0.14054,-0.20401,0.013886,-0.015717,-0.0053407,-0.0010681
-0.061799,0.034028,-0.14481,-0.13565,0.0019837,-0.027619,-0.022431,0.034028
-0.074617,0.040742,-0.13962,-0.087434,-0.030671,-0.024872,-0.021515,0.069429
-0.12528,0.10575,-0.14359,-0.12955,-0.017243,-0.033112,-0.036469,0.077363
-0.10117,0.03769,-0.086824,-0.12772,-0.024262,-0.0047303,0.0077821,0.10666
-0.082246,0.023651,-0.08011,-0.014801,-0.05539,0.026703,0.05417,0.087739
-0.02945,-0.021515,-0.054475,0.052644,-0.020905,0.020905,0.052033,0.027314
-0.010529,-0.050202,-0.041962,-0.21744,0.045624,-0.032197,0.032807,0.00045777
-0.009308,-0.081331,0.016327,-0.060883,0.00076295,0.016938,0.025177,0.0050355
-0.0068666,-0.016938,-0.0035096,-0.16007,-0.04715,0.069734,-0.13016,0.013275
0.03006,-0.10788,0.048676,0.082856,0.058137,0.013275,-0.087129,-0.019684
0.042878,-0.13657,0.044099,0.059968,0.036774,0.023041,0.10147,-0.025483
0.051728,-0.15,0.00045777,-0.14878,0.103,-0.04593,0.043793,-0.086824
0.048981,-0.12802,0.0019837,-0.052949,0.041962,-0.016327,0.037995,-0.074922
0.025788,-0.15702,-0.030976,-0.045014,0.065156,-0.016938,-0.049897,-0.086213
-0.0041199,-0.094453,-0.078584,-0.018158,-0.034333,0.11002,-0.07187,-0.048981
-0.049287,0.025177,-0.13382,-0.12039,-0.031281,0.092622,-0.079805,-0.050813
-0.081025,0.072175,-0.13321,-0.07126,0.0080873,-0.00015259,-0.099031,-0.0050355
-0.08011,0.092622,-0.15396,-0.11093,-0.011444,-0.011444,0.033112,0.050202
-0.092927,0.083467,-0.14725,-0.18601,-0.0065614,-0.0090028,0.0795,0.051728
-0.098421,0.093843,-0.14511,-0.072175,-0.1033,0.014191,0.051118,0.067597
-0.070649,0.0065614,-0.077974,-0.0041199,-0.066987,0.020905,0.050507,0.066072
-0.051118,-0.031586,-0.11063,-0.20157,0.013275,-0.00076295,0.047761,0.066072
-0.034943,-0.025483,-0.050507,-0.103,0.05417,-0.041047,0.0053407,0.046845
-0.0041199,-0.074311,-0.016327,-0.096284,0.010834,0.010529,0.02884,0.071565
0.023957,-0.10666,0.028229,0.0056458,-0.020294,0.05478,0.037385,0.054475
0.031281,-0.10239,0.036774,-0.078889,0.015412,0.0086976,-0.0206,0.023651
0.0065614,-0.063325,0.037995,-0.10544,0.062409,-0.020294,-0.015717,-0.002594
0.019989,-0.085603,0.0086976,0.023041,0.013581,-0.04654,0.039826,0.0035096
0.053559,-0.1735,0.067903,0.013581,0.043793,-0.0013733,0.057221,-0.022736
0.060578,-0.18387,-0.023651,-0.005951,0.091402,0.027924,0.02182,-0.069123
0.012665,-0.11795,-0.082856,-0.099336,0.10269,-0.0013733,-0.035859,-0.091096
-0.02945,-0.019379,-0.085908,-0.030365,0.071565,-0.016938,-0.11765,-0.086824
-0.066072,0.066682,-0.15091,-0.1268,0.034028,-0.024262,-0.044404,-0.041047
-0.099641,0.1265,-0.14298,-0.12436,0.0096132,0.0099184,0.041657,-0.011444
-0.10025,0.055695,-0.13718,-0.078584,-0.083467,0.072175,0.11612,0.073701
-0.12131,0.076753,-0.14572,-0.12894,-0.035248,0.032197,0.093843,0.10056
-0.041352,-0.0086976,-0.10849,-0.12894,-0.047456,0.005951,0.034333,0.091402
-0.051728,0.049897,-0.11215,-0.17288,-0.019684,-0.025177,0.019074,0.067292
-0.070039,0.073701,-0.052644,-0.09659,-0.067903,0.056916,0.091402,0.090181
-0.02945,-0.053559,-0.023651,-0.042267,-0.089876,0.059052,0.1146,0.1207
-0.029755,-0.07248,-0.011444,-0.012055,0.0050355,-0.011749,0.0077821,0.051118
-0.017548,-0.059663,0.013886,-0.12314,0.053864,-0.03769,-0.10788,-0.014191
-0.0080873,-0.10819,0.043793,-0.016632,0.013275,0.017243,-0.21653,-0.030671
-0.023346,-0.068818,0.0053407,-0.016632,0.0047303,0.056611,-0.20951,-0.019379
-0.017548,-0.091707,0.0062562,-0.054475,0.076448,-0.005951,-0.019074,-0.10971
0.04593,-0.16007,-0.00045777,0.044709,0.011139,0.016022,0.070344,-0.12528
0.027314,-0.14176,-0.015412,-0.15091,-0.0056458,0.019074,0.15274,-0.07187
-0.015717,-0.11887,-0.040436,-0.09659,0.044099,0.022126,0.10758,-0.041047
-0.067597,-0.027924,-0.1149,-0.018158,-0.014191,0.068818,0.032197,0.041047
-0.056001,0.02182,-0.13779,-0.064851,0.045624,0.0028992,0.017853,0.056306
-0.060578,0.054475,-0.14969,-0.064851,0.10422,-0.056306,0.009308,0.009308
-0.092317,0.090486,-0.15274,-0.13901,0.1973,-0.1146,-0.011444,0.033417
-0.078279,0.061494,-0.14481,-0.19699,-0.063935,0.039216,0.0068666,0.044099
-0.072786,0.041657,-0.10666,-0.14542,-0.089265,0.060883,0.024872,0.065766
-0.045319,-0.0028992,-0.074617,-0.051118,-0.010224,0.037995,0.014801,0.083772
-0.0090028,-0.038911,-0.053864,-0.044404,-0.076143,0.01236,-0.0019837,0.053864
0.011749,-0.011749,-0.027924,-0.11337,-0.013275,-0.019989,-0.013581,0.027008
0.013886,-0.035859,0.005951,-0.12772,0.02945,0.031586,0.042878,0.038911
0.012665,-0.030976,0.034943,-0.025177,-0.037079,0.053254,0.029755,0.032807
0.024872,-0.077974,0.048066,0.057221,0.014801,0.0099184,-0.036469,-0.0022889
0.022736,-0.1561,0.022431,-0.11093,0.048066,-0.011139,-0.024872,-0.043183
0.04715,-0.23789,0.031891,-0.056916,0.058442,-0.031281,-0.0206,-0.056001
0.059052,-0.20981,-0.0038148,0.009308,0.017853,0.018769,0.023957,-0.041657
0.014191,-0.098726,-0.084993,-0.0795,0.055695,-0.013275,0.014191,-0.055695
-0.027008,-0.068513,-0.051118,-0.11673,0.059358,-0.013275,0.005951,-0.041962
-0.038605,-0.056611,-0.11429,0.02182,-0.0086976,0.025177,0.01297,-0.013275
-0.058137,0.12589,-0.18692,-0.10147,0.0038148,0.015412,-0.0065614,-0.011139
-0.10422,0.12406,-0.14572,-0.21836,0.043183,-0.031281,-0.070649,-0.038911
-0.0383,0.0035096,-0.11887,-0.067597,-0.077668,0.045624,0.011444,0.056306
-0.092317,0.088045,-0.11887,-0.074311,-0.069429,0.046235,0.062104,0.075532
-0.099947,0.091402,-0.12161,-0.10056,0.0010681,-0.065461,0.012055,0.067597
-0.090791,0.033722,-0.076448,-0.1735,-0.038911,-0.077058,0.068513,0.10056
-0.039521,-0.022431,-0.023041,-0.035554,-0.071565,0.010224,0.073701,0.11093
-0.018463,-0.043488,-0.012055,-0.0053407,-0.011444,0.082551,0.034028,0.076753
-0.012665,-0.061494,0.0071717,-0.081331,0.053254,0.15732,0.01297,0.024872
0.027619,-0.10452,0.012055,-0.056611,-0.025177,0.37217,0.009308,0.0086976
0.077974,-0.18387,0.032197,0.010834,0.025483,0.071565,-0.045014,-0.031281
0.062104,-0.11551,0.0065614,-0.077363,0.10758,-0.53269,-0.056916,-0.10575
0.0032044,-0.068818,0.0035096,-0.016938,0.037385,-0.09659,-0.010529,-0.1323
0.0090028,-0.10605,-0.0065614,-0.06302,0.041352,0.071565,0.056611,-0.07187
0.022126,-0.095369,-0.056001,-0.046845,0.099947,0.035554,0.044099,-0.055695
-0.029755,-0.0077821,-0.087434,-0.1091,0.031586,0.032502,-0.0013733,-0.061189
-0.065461,0.035248,-0.12253,-0.11246,0.0065614,0.018769,-0.014191,-0.0080873
-0.088045,0.037385,-0.1387,-0.045624,-0.0013733,-0.011444,-0.027619,0.030976
-0.092317,0.017243,-0.15579,-0.16068,0.012055,-0.037385,-0.01297,0.038911
-0.14755,0.090486,-0.16281,-0.16678,-0.01236,-0.018158,-0.011444,0.047456
-0.12558,0.014191,-0.077974,-0.062409,-0.082246,0.0028992,0.0047303,0.097505
-0.13199,0.063325,-0.092012,-0.16709,-0.045624,0.022126,0.04654,0.13382
-0.08072,0.0035096,-0.05417,-0.072786,-0.052033,0.059663,0.09659,0.15396
-0.044709,-0.027619,-0.037079,-0.044709,-0.052033,0.042573,0.088045,0.11795
-0.020294,-0.035554,-0.0044251,-0.041657,0.016022,0.01236,0.023041,0.056611
0.0028992,-0.040131,0.0065614,-0.103,0.015106,0.014496,0.040131,0.042267
0.044099,-0.097505,0.028534,0.011749,0.010834,0.048981,0.025788,0.024262
0.075837,-0.14084,-0.024567,-0.14511,0.033722,0.025483,-0.016632,-0.057527
0.059052,-0.12863,-0.0028992,0.013275,0.0795,-0.0041199,-0.0047303,-0.095674
0.075837,-0.17502,0.034333,0.052033,0.070039,-0.012665,-0.032502,-0.10636
0.060273,-0.20432,0.035859,-0.23484,0.063935,-0.013886,-0.029755,-0.0972
0.028229,-0.13901,-0.055695,-0.010224,0.024262,0.033417,0.011139,-0.081941
0.010834,-0.045624,-0.11276,-0.036774,-0.002594,0.030671,0.056306,-0.045014
-0.037385,0.040436,-0.15061,-0.072175,0.025483,-0.022736,0.037079,-0.015412
-0.10727,0.1326,-0.17533,-0.11337,0.0047303,-0.033112,-0.20096,-0.017548
-0.10605,0.062104,-0.12924,-0.012055,0.0038148,-0.040131,-0.27146,0.02182
-0.057221,-0.0019837,-0.11826,-0.16464,0.017853,-0.034333,0.013581,0.075227
-0.10117,0.092622,-0.12314,-0.21469,0.0047303,0.0065614,0.093843,0.056306
-0.11185,0.0972,-0.10361,-0.17685,-0.099947,0.045319,0.06302,0.063935
-0.047761,-0.027314,-0.028534,-0.019074,-0.092317,0.039216,0.058137,0.098116
-0.042573,-0.020294,-0.056916,-0.06363,-0.029145,0.024567,0.029145,0.084688
0.0041199,-0.077668,0.024567,-0.039521,0.0071717,0.018769,0.00076295,0.041352
0.052338,-0.15579,0.026398,0.085908,-0.0022889,0.032807,0.019684,0.016022
0.040131,-0.087739,0.013275,-0.13382,0.12192,-0.060578,-0.0047303,-0.040742
0.03769,-0.121,0.026703,-0.042267,0.083467,0.0013733,0.024262,-0.052033
0.040436,-0.1207,0.017548,-0.037385,0.0032044,0.051118,0.059663,-0.056916
0.011444,-0.064546,-0.013886,-0.056306,0.050202,0.019379,0.029755,-0.091096
-0.0044251,-0.056611,-0.07126,-0.069734,0.019684,0.039216,0.049287,-0.04715
-0.017548,-0.0383,-0.072786,-0.028534,0.025788,0.020905,0.067903,-0.0086976
-0.0053407,-0.065766,-0.092317,-0.10788,0.029755,0.014496,0.080415,0.005951
-0.041352,-0.03769,-0.15274,-0.1799,0.043488,-0.012665,0.085603,-0.012055
-0.1091,0.04715,-0.14481,-0.11856,0.0016785,-0.016022,0.053559,-0.022126
-0.10147,0.051423,-0.12863,-0.019074,-0.037079,-0.011139,-0.031281,0.039216
-0.103,0.11124,-0.12528,-0.18265,-0.017243,-0.012665,-0.22477,0.055085
-0.10941,0.059358,-0.096895,-0.15946,-0.018158,-0.0013733,-0.058747,0.07248
-0.081941,-0.023957,-0.039826,-0.0062562,-0.033722,0.0038148,0.0047303,0.14664
-0.012055,-0.064851,-0.05478,-0.064546,0.0047303,-0.02121,-0.13809,0.14054
-0.029755,0.012665,-0.041962,-0.15122,0.025177,-0.02121,0.073701,0.06424
0.0096132,-0.08835,0.024567,-0.019074,-0.033112,-0.010224,0.11429,0.0053407
0.021515,-0.096895,0.025788,-0.08835,0.0028992,-0.015106,0.022126,-0.016938
0.0019837,-0.06363,0.0065614,-0.033112,-0.043488,0.10544,-0.0206,-0.059968
-0.0010681,-0.11032,0.025788,-0.017243,-0.067903,0.13138,-0.034333,-0.068208
0.013581,-0.13413,-0.00045777,-0.026398,0.023957,0.035554,-0.0022889,-0.055085
0.016022,-0.096284,-0.02884,-0.07248,0.083162,-0.005951,0.035554,-0.048981
0.016022,-0.10605,-0.028534,-0.01236,0.076143,0.0206,0.039216,-0.042878
-0.025788,-0.048066,-0.08896,-0.093843,0.050202,0.028229,0.05417,-0.034333
-0.068818,0.015412,-0.13687,-0.095674,0.039826,0.0050355,0.0047303,-0.028229
-0.077363,0.058747,-0.15579,-0.095369,-0.014191,0.017243,0.016022,0.0077821
-0.06363,0.044099,-0.14481,-0.15183,-0.0050355,-0.019989,0.034333,0.051423
-0.092927,0.07126,-0.15579,-0.073396,-0.0071717,-0.02884,-0.0047303,0.033722
-0.12222,0.11032,-0.13718,-0.14206,-0.016938,-0.019684,0.0074769,0.073396
-0.072175,-0.0077821,-0.066377,-0.12039,-0.024262,0.00076295,0.054475,0.15488
-0.059663,-0.020294,-0.049287,-0.042878,-0.056611,0.0206,0.050202,0.12924
-0.053559,-0.018463,-0.052338,-0.072175,-0.0083925,0.024262,0.033722,0.083467
-0.043793,-0.050202,-0.017853,-0.15457,0.027314,0.036469,0.053559,0.079194
-0.015412,-0.076753,0.034943,-0.10544,-0.0050355,0.043183,0.07248,0.04715
0.039521,-0.17197,0.059663,-0.019074,-0.026703,0.026093,0.060273,0.022736
0.052033,-0.12406,0.0086976,-0.19669,0.056001,0.0068666,0.044099,-0.038911
0.074311,-0.11734,0.0041199,0.37827,0.065156,0.0065614,0.0080873,-0.061189
0.067292,-0.094148,-0.0068666,-0.13931,0.078584,-0.019074,-0.023651,-0.11124
0.045319,-0.092622,-0.018158,-0.086824,0.066377,-0.0074769,-0.064851,-0.14664
0.029145,-0.052033,-0.078584,-0.046845,0.0068666,0.025483,-0.086824,-0.12558
0.0016785,-0.039521,-0.094453,-0.046845,0.041962,-0.012665,-0.13657,-0.11002
-0.052949,0.060578,-0.12528,-0.13687,0.041962,-0.031586,-0.12345,-0.091096
-0.079194,0.073396,-0.14664,-0.10178,-0.020905,0.0010681,-0.014191,-0.012665
-0.03769,0.013886,-0.1564,-0.058747,-0.048371,0.0028992,0.07126,0.092012
-0.095369,0.12222,-0.13321,-0.12039,0.010834,-0.040436,0.06363,0.062104
-0.10544,0.090486,-0.11643,-0.20188,0.013581,-0.02884,0.054475,0.059358
-0.11154,0.015717,-0.077974,-0.099947,-0.074617,0.0090028,0.076143,0.094453
-0.052949,-0.094453,-0.036469,-0.035248,-0.059663,0.0053407,0.056306,0.092012
-0.020905,-0.11673,-0.019074,-0.13748,-0.0044251,0.035248,0.039826,0.11551
-0.0080873,-0.12467,-0.014191,-0.031586,-0.028229,0.055085,-0.0010681,0.07126
0.019379,-0.12863,0.035859,-0.032807,-0.017548,0.02945,-0.042573,0.01297
0.049897,-0.13077,0.034333,-0.026703,0.031891,0.018463,-0.053254,-0.0053407
0.022126,-0.079805,0.011749,0.0047303,0.052949,0.014496,-0.024262,-0.048676
-0.019379,-0.060883,0.00015259,0.091402,0.013275,0.017853,0.046235,-0.047761
0.013886,-0.11368,0.0038148,-0.11673,-0.010834,0.035554,0.043488,-0.0010681
0.034333,-0.088045,-0.065766,-0.16068,0.085298,-0.013581,0.039521,-0.0050355
-0.0090028,-0.048676,-0.086824,-0.058137,0.084382,-0.0050355,0.052949,-0.074006
-0.056001,0.033417,-0.1091,-0.087129,0.078279,-0.0028992,0.052949,-0.057832
-0.07187,0.010224,-0.11948,-0.17716,0.15885,-0.066377,0.056001,-0.0074769
-0.09781,0.052644,-0.13474,-0.13169,0.082246,-0.018769,0.033417,0.05417
-0.10575,0.10727,-0.14054,-0.086824,-0.13474,0.06302,-0.14267,0.10971
-0.082246,0.10452,-0.13718,-0.10513,-0.025483,0.010224,-0.14145,0.095674
-0.076753,0.041657,-0.10819,-0.13565,-0.028534,-0.0077821,0.017243,0.041657
-0.089265,0.038605,-0.082856,-0.12863,-0.10025,0.018158,0.053864,-0.0035096
-0.079805,-0.0062562,-0.016022,-0.068513,-0.14817,0.026398,0.07126,0.036164
-0.038605,-0.058137,-0.014496,0.07126,-0.12406,0.021515,0.015106,0.061189
0.0099184,-0.19028,0.01236,-0.023041,0.033722,-0.019684,-0.08957,0.0096132
0.059663,-0.22599,0.035554,-0.1799,0.092622,-0.023346,-0.018463,-0.022431
0.063325,-0.10849,0.022126,0.0065614,0.00076295,0.038911,0.13443,-0.0032044
0.016938,-0.026093,0.00015259,-0.011444,0.039826,0.0080873,0.027314,-0.025483
-0.0019837,-0.10269,0.010834,-0.023651,0.042878,0.019074,-0.00015259,-0.016327
0.025788,-0.06424,-0.013886,-0.083772,0.045624,-0.027619,0.034943,-0.050813
0.016022,-0.052338,-0.072175,-0.091096,0.11948,-0.027619,0.0068666,-0.056611
-0.023041,-0.034638,-0.066072,-0.0206,0.072175,0.052949,0.010834,-0.084382
-0.032807,-0.020294,-0.1387,-0.12955,-0.020905,0.16709,0.029755,-0.045319
-0.025483,-0.0383,-0.099031,-0.11917,-0.036469,0.31205,-0.018158,-0.0044251
-0.058747,0.0083925,-0.1384,-0.057221,-0.026398,0.20127,-0.11948,0.0038148
-0.046845,0.025177,-0.16007,-0.13169,0.067903,-0.53056,-0.12802,0.033112
-0.065766,0.09659,-0.13993,-0.15854,0.022126,-0.27665,0.010834,0.075227
-0.08835,0.066377,-0.099336,-0.059052,-0.075532,0.052644,0.052033,0.092317
-0.077974,0.034638,-0.05478,-0.071565,-0.053864,-0.010224,0.062104,0.08835
-0.066987,0.022431,-0.030976,-0.079194,-0.022736,0.01297,0.10697,0.077668
0.016632,-0.11795,-0.0019837,0.016632,-0.020294,0.017243,0.06424,0.060273
0.026703,-0.11765,0.0096132,-0.069734,0.0056458,0.020905,-0.030976,0.01297
0.018769,-0.10056,0.043488,-0.08957,0.048371,0.017243,-0.0065614,-0.030365
0.025177,-0.1268,0.032807,-0.032197,0.018769,0.052338,0.018158,-0.030365
0.0065614,-0.13046,0.0032044,-0.038911,0.035248,0.056916,0.032807,-0.024567
-0.013581,-0.08957,-0.0096132,-0.069734,0.040436,0.039216,0.040131,-0.033112
0.0016785,-0.084077,-0.020905,-0.0050355,0.011444,0.041657,0.059358,-0.012665
-0.035554,-0.024872,-0.099031,-0.09659,0.033112,0.026703,0.044404,-0.020905
-0.070954,0.037079,-0.11978,-0.14206,0.057832,0.010834,-0.00076295,-0.009308
-0.053864,0.019684,-0.11429,-0.044709,-0.022431,0.058137,0.020294,0.041657
-0.022126,-0.0041199,-0.13901,0.011749,-0.0096132,-0.017853,0.0099184,0.036774
-0.065766,0.10544,-0.10056,-0.25925,0.044099,-0.099336,-0.043488,0.0016785
-0.06302,-0.0080873,-0.092622,-0.0972,-0.031586,0.01297,-0.035554,-0.021515
-0.070039,-0.046235,-0.11612,-0.07126,-0.093538,0.033417,-0.00076295,0.013275
-0.077668,0.031586,-0.1146,-0.048676,-0.0383,-0.017853,-0.002594,0.03006
-0.067292,0.014191,-0.058747,-0.12039,0.014801,-0.019989,-0.032502,0.026703
-0.056611,-0.03006,-0.042573,-0.10788,0.074617,0.024262,0.0013733,0.062104
-0.0022889,-0.10208,0.02182,0.096895,-0.0071717,0.06302,0.066377,0.074311
0.012055,-0.097505,0.024567,-0.18723,0.027619,-0.0041199,0.026093,0.017853
-0.0090028,-0.083467,0.028229,-0.060578,0.05539,-0.0019837,-0.0065614,-0.045014
0.029755,-0.12253,0.024262,0.00045777,-0.049287,0.062409,0.027924,-0.035554
0.056611,-0.13993,0.00076295,-0.12314,0.083162,-0.0038148,0.019684,-0.044404
0.022126,-0.088655,-0.01236,-0.092622,0.050202,0.016327,-0.022431,-0.082856
-0.020294,-0.047761,-0.04593,-0.085603,-0.0013733,0.036164,0.0056458,-0.057832
-0.0074769,-0.036164,-0.088045,-0.052644,-0.027619,0.073091,0.068513,0.041962
-0.023346,-0.0065614,-0.11154,-0.051728,0.010529,0.019989,0.026093,0.031281
-0.041657,0.051728,-0.16587,-0.099336,0.04715,-0.024262,-0.0022889,0.019379
-0.056001,0.069123,-0.16159,-0.094759,0.0038148,-0.010834,-0.0022889,0.041352
-0.098421,0.056611,-0.12497,-0.095674,-0.013275,-0.019989,-0.013581,0.076448
-0.12802,0.077668,-0.10819,-0.10727,-0.0050355,-0.018158,-0.0041199,0.059358
-0.1091,0.018158,-0.0972,-0.12802,-0.022126,0.018158,0.041352,0.069429
-0.08011,-0.026093,-0.11154,-0.07248,-0.022126,0.044709,0.053254,0.0795
-0.036774,-0.060883,-0.014496,-0.030365,0.0032044,0.00045777,0.064546,0.066377
0.033112,-0.14298,-0.017548,0.034638,0.025177,-0.041962,0.058137,0.034943
0.055085,-0.10849,-0.0019837,-0.13993,0.063935,-0.085908,0.013581,-0.058137
0.023346,-0.057832,0.02884,-0.16464,0.049287,-0.077974,0.0038148,-0.11154
0.0010681,-0.06363,0.010224,0.050202,-0.053864,0.049592,-0.13687,-0.074922
0.060578,-0.11551,0.0080873,0.019074,-0.028534,0.1149,-0.23728,-0.051423
0.062104,-0.097505,0.0013733,-0.11887,0.058137,0.06424,-0.031891,-0.06302
0.025177,-0.11246,0.015412,-0.10269,0.020905,0.027008,0.04654,-0.085908
-0.028534,-0.071565,-0.051728,-0.053254,-0.0090028,0.014496,0.053864,-0.052949
-0.04593,-0.072786,-0.07187,-0.030365,0.0053407,-0.0022889,0.060578,-0.00045777
-0.057221,0.00015259,-0.11887,-0.11704,0.06424,-0.035248,-0.002594,0.039826
-0.11032,0.10422,-0.17075,-0.13657,0.02945,0.0047303,0.033417,0.045319
-0.10056,0.099641,-0.15274,-0.082246,-0.04654,0.025177,0.069734,0.091402
-0.10117,0.027314,-0.12894,-0.060273,0.012665,-0.023346,0.045014,0.072175
-0.13443,0.11032,-0.12985,-0.17319,0.0056458,0.0047303,0.046235,0.094759
-0.12253,0.084077,-0.10941,-0.1207,-0.041352,0.019989,0.079194,0.14481
-0.062104,0.0083925,-0.067903,-0.11093,-0.051728,0.0080873,0.042878,0.090791
-0.034333,-0.068818,-0.029755,-0.083467,-0.030365,0.0028992,0.047456,0.097505
-0.058747,-0.023346,0.0022889,-0.064851,-0.0074769,0.024262,0.052338,0.066377
0.016022,-0.10605,0.022126,-0.014191,-0.012055,0.046845,0.060578,0.056611
0.057221,-0.20951,0.042267,0.029755,0.002594,0.036469,0.058442,0.005951
0.052949,-0.13169,0.033722,-0.016022,0.070039,-0.0074769,0.0077821,-0.058747
0.093843,-0.15274,0.019684,-0.057221,0.084077,-0.0062562,-0.046845,-0.041047
0.091707,-0.11398,-0.036774,-0.089265,0.047761,0.0032044,-0.10117,-0.087434
0.052949,-0.070954,-0.052033,0.016938,0.067903,-0.011749,-0.016632,-0.1146
-0.014191,-0.0022889,-0.087434,-0.14054,0.073091,-0.02884,0.056306,-0.12222
-0.045319,-0.026398,-0.070039,-0.090791,0.05417,-0.019379,0.055085,-0.087129
-0.066987,-0.024872,-0.12497,-0.11063,-0.040742,0.020294,0.047761,-0.062104
-0.068208,-0.027619,-0.12741,-0.024567,-0.011444,-0.0074769,-0.086824,-0.027314
-0.11795,0.045624,-0.13474,-0.11551,0.002594,-0.041352,-0.32029,-0.0090028
-0.10422,0.0053407,-0.14908,-0.15183,0.0047303,-0.016022,-0.11307,0.098726
-0.11643,0.085298,-0.12284,-0.091096,-0.076143,0.076448,0.15702,0.16098
-0.061189,0.047761,-0.10666,-0.14939,-0.046845,0.030365,0.095369,0.10422
-0.051423,0.021515,-0.041047,-0.093538,-0.035554,0.01297,0.059663,0.070344
-0.024567,-0.0080873,-0.027619,-0.030671,-0.035248,0.016327,0.05539,0.065766
0.0038148,-0.040131,-0.00015259,-0.082551,0.023041,-0.014191,0.038911,0.031586
0.013275,-0.064546,0.009308,-0.049287,0.023957,0.010529,0.014801,-0.010834
0.012055,-0.094759,0.022736,-0.074311,0.01297,0.052949,0.040131,-0.0086976
0.044099,-0.13993,0.033417,-0.032502,0.0010681,0.052644,0.033417,-0.017243
0.032197,-0.103,-0.0047303,-0.050813,0.014801,0.024262,0.013275,-0.056916
0.031891,-0.11276,0.0056458,0.0056458,0.063325,-0.0038148,0.0065614,-0.064851
0.031891,-0.14481,0.01236,0.0019837,0.054475,-0.0022889,0.03006,-0.047456
-0.0028992,-0.095674,-0.10361,-0.10269,0.069734,-0.00015259,0.06424,-0.012665
-0.041657,-0.032502,-0.12772,-0.091402,0.035554,0.028229,0.075837,0.02121
-0.035248,-0.018463,-0.13779,-0.16342,-0.00015259,0.024262,0.052338,0.015106
-0.038605,-0.026703,-0.14359,0.11337,0.045014,-0.023651,-0.054475,-0.036774
-0.093538,0.031586,-0.12497,-0.2443,0.040131,-0.057221,-0.10941,-0.019074
-0.103,0.14542,-0.11978,-0.19486,-0.056001,-0.023346,-0.18906,0.069429
-0.10452,0.11521,-0.10819,-0.061494,-0.121,0.013886,-0.20218,0.11368
-0.081025,0.06424,-0.092927,-0.070954,-0.036774,-0.0074769,0.022126,0.10147
-0.0035096,-0.012665,-0.052338,-0.080415,-0.042878,0.0090028,0.092317,0.075227
-0.0032044,-0.043488,-0.011749,-0.0972,0.005951,0.0013733,0.062104,0.005951
-0.0028992,-0.13687,0.041047,-0.017548,0.066682,0.024262,0.070039,-0.028534
0.051728,-0.20462,0.059052,-0.070649,0.027008,0.059663,0.10086,0.0068666
0.031586,-0.10758,-0.0099184,-0.070954,0.041962,0.017243,0.048066,-0.062715
0.016938,-0.10575,0.013275,0.038911,0.041657,0.020294,-0.013581,-0.11734
0.040436,-0.072175,-0.020294,0.013886,0.061189,0.0041199,0.009308,-0.092012
-0.038911,-0.043793,-0.026703,-0.083772,0.12253,-0.056306,-0.016327,-0.16159
-0.058137,-0.056611,-0.056001,-0.1561,0.059663,-0.024262,-0.073701,-0.14694
-0.095064,-0.012055,-0.076753,-0.12192,-0.035554,0.058747,0.041352,0.043793
-0.11398,0.038605,-0.12039,-0.10849,-0.066987,0.067597,0.10269,0.10605
-0.10239,0.039826,-0.13169,-0.066987,-0.04593,0.048371,0.1326,0.16464
-0.091707,0.033417,-0.11734,-0.074311,-0.01236,0.0383,0.12284,0.19303
-0.078279,0.029145,-0.12741,-0.14511,-0.014496,0.012055,0.11429,0.15702
-0.0795,0.04654,-0.14542,-0.14572,-0.08072,0.032807,0.15427,0.13169
-0.049592,0.015412,-0.096895,-0.043488,-0.11643,0.045319,0.10239,0.12467
-0.040742,0.0010681,-0.065156,-0.047761,-0.044709,0.022736,-0.14023,0.11368
0.020294,-0.073701,-0.0383,-0.10697,0.034333,-0.014191,-0.22477,0.041657
0.019684,-0.060273,-0.005951,-0.095674,0.051118,-0.034333,-0.077363,-0.048371
0.033112,-0.13626,0.035554,-0.072786,0.18357,-0.058442,-0.019684,-0.056916
0.041352,-0.12772,0.036774,0.014801,0.11978,0.032807,0.0050355,-0.048676
0.065156,-0.11887,-0.0044251,-0.030976,-0.010834,0.032502,0.031281,-0.12528
0.078279,-0.1323,0.0206,-0.026703,0.013275,-0.081941,0.084382,-0.13199
0.043488,-0.08957,-0.011749,-0.045624,0.019074,-0.0086976,-0.00015259,-0.10605
0.029755,-0.060273,-0.030365,-0.055695,0.068513,0.059358,-0.033417,-0.1033
0.016632,-0.070649,-0.057221,-0.16861,0.01297,0.19608,0.032807,-0.062104
-0.075227,0.015412,-0.10758,-0.093233,-0.047456,0.36667,-0.015412,-0.040742
-0.1146,0.0795,-0.14298,-0.086824,-0.010224,0.10056,-0.15244,-0.030365
-0.1033,0.030671,-0.12375,-0.032502,0.062104,-0.60349,-0.099336,0.052338
-0.10025,0.018463,-0.16495,-0.13748,0.0383,-0.28397,-0.027314,0.067597
-0.095064,0.053864,-0.16403,-0.13565,-0.00076295,0.036164,0.045014,0.083772
-0.067597,0.043488,-0.11704,-0.051728,-0.11337,0.085298,0.12985,0.18265
-0.076753,0.044709,-0.068513,-0.21927,-0.097505,0.072175,0.10269,0.17166
-0.065766,0.0083925,-0.034638,-0.074922,-0.029145,0.0028992,0.033722,0.085298
-0.0206,-0.059968,-0.017548,0.0035096,-0.016632,0.016327,0.07187,0.087739
0.00076295,-0.074311,0.0071717,-0.033417,0.026093,0.027924,0.078584,0.046235
0.0086976,-0.075837,0.017853,-0.10483,0.054475,-0.0016785,0.011444,-0.065461
0.0038148,-0.11063,0.042878,-0.022431,-0.0050355,0.043183,0.055695,-0.086824
0.0090028,-0.1088,0.020294,-0.038911,0.0035096,0.036164,0.022126,-0.053254
0.0041199,-0.068513,-0.013581,-0.082551,0.056916,0.031586,-0.10178,-0.068818
0.025177,-0.14145,0.04593,0.066682,0.02945,0.064546,-0.012665,-0.034943
0.050202,-0.18051,-0.029145,0.0035096,0.074006,0.020294,0.014801,-0.024567
-0.0068666,-0.034333,-0.10605,-0.18143,0.12833,-0.02182,-0.030365,-0.058137
-0.052949,0.0019837,-0.10636,-0.10788,0.029755,0.020294,-0.0019837,-0.019379
-0.069123,0.040131,-0.14267,-0.0795,-0.070954,0.074922,0.070039,0.04593
-0.075227,0.059968,-0.13993,-0.15763,-0.0086976,0.018769,0.036164,-0.0071717
-0.098421,0.077363,-0.16068,-0.072786,-0.018769,-0.02121,0.034333,-0.0065614
-0.064546,0.03006,-0.13107,-0.06363,-0.039216,0.039216,0.082551,0.069734
-0.075837,0.048676,-0.11643,-0.20523,-0.028229,0.028534,0.045319,0.065461
-0.030365,-0.039826,-0.04654,-0.058442,-0.020294,-0.0096132,0.05539,0.082551
-0.025177,-0.048981,-0.019684,-0.16281,-0.0013733,0.00015259,0.026703,0.10391
-0.012055,-0.048676,-0.022126,0.24857,0.034028,-0.030365,-0.22446,0.082246
0.020294,-0.095674,0.0062562,-0.12131,0.013275,-0.025483,-0.12589,0.088045
0.038911,-0.09781,0.024262,-0.1796,0.024872,-0.015717,0.069429,0.025483
-0.0090028,-0.074006,0.012665,-0.031281,0.031281,0.024567,0.082551,-0.039826
0.02182,-0.13352,0.02182,0.02945,0.0090028,0.053254,0.10452,-0.034943
0.046235,-0.11765,-0.024262,-0.066682,0.061799,0.04715,0.070039,-0.061494
0.023041,-0.065766,-0.032807,-0.062409,0.083162,-0.00015259,-0.023041,-0.12039
-0.025483,-0.059663,-0.044709,-0.072175,0.032807,-0.0077821,-0.045624,-0.10422
-0.035248,-0.02884,-0.081025,-0.043183,0.017243,0.0032044,-0.059358,-0.079194
-0.079805,0.065156,-0.13687,-0.091096,0.012055,0.0077821,-0.084382,-0.050813
-0.08835,0.067903,-0.18143,-0.1735,0.018158,-0.0056458,-0.010224,0.030365
-0.089876,0.016022,-0.11704,-0.083467,-0.0383,0.0065614,0.056306,0.049287
-0.095979,0.058137,-0.14176,-0.089876,-0.073396,0.0099184,0.031281,0.034333
-0.10239,0.066072,-0.10727,-0.10758,-0.025177,-0.0077821,0.020294,0.045319
-0.077974,0.053559,-0.095064,-0.16953,0.0053407,0.016022,0.041352,0.085908
-0.041352,-0.0022889,-0.043183,-0.11795,-0.0065614,0.0080873,0.040131,0.11307
0.0065614,-0.12161,0.039521,-0.01297,-0.034943,-0.0068666,0.04593,0.10605
0.027924,-0.074006,-0.029145,-0.081331,-0.00076295,0.00045777,0.070649,0.084077
0.026093,-0.081331,0.00045777,-0.027008,0.035859,-0.0090028,0.023041,0.022736
0.027619,-0.06363,0.0206,-0.040131,0.037995,0.034028,0.002594,0.0053407
0.014191,-0.11429,0.032807,-0.086824,0.06424,0.025483,0.0096132,-0.017548
0.031586,-0.14206,-0.0019837,-0.056916,0.019684,0.0044251,-0.025788,-0.047761
0.053559,-0.18296,0.0074769,0.020905,0.0032044,-0.0050355,-0.047761,-0.070039
-0.0086976,-0.1442,-0.031586,-0.11795,-0.012055,0.0086976,-0.046845,-0.11337
-0.0028992,-0.1323,-0.066377,-0.075227,-0.0086976,0.068208,0.038911,-0.036774
-0.0068666,-0.052033,-0.14847,-0.033722,0.0068666,0.032502,0.070649,-0.0056458
-0.015106,0.039826,-0.11551,-0.048676,0.059358,-0.025483,-0.010529,-0.043488
-0.075837,0.016632,-0.11948,-0.12924,0.053254,-0.038911,-0.030671,-0.025788
-0.11856,0.070649,-0.15885,-0.10575,0.013275,-0.036164,-0.041962,0.010834
-0.1091,0.057832,-0.13138,-0.14603,-0.024567,-0.0090028,0.0065614,0.08957
-0.099031,0.083467,-0.11154,-0.11978,-0.026703,-0.00015259,0.045319,0.11765
-0.12528,0.13077,-0.11887,-0.10727,-0.055085,0.02121,0.037995,0.12772
-0.085298,0.050507,-0.04593,-0.075532,-0.020905,0.0068666,0.043488,0.12467
-0.014191,-0.048066,-0.012055,-0.046235,0.0071717,0.0206,0.035859,0.076143
-0.0062562,-0.033417,-0.010834,-0.14084,0.023957,0.01236,0.009308,0.0090028
0.022736,-0.11765,0.048371,-0.016327,-0.00076295,0.041352,0.034943,-0.0047303
0.02121,-0.082246,0.034943,-0.024567,-0.010224,0.077058,0.069123,0.005951
0.06424,-0.13138,0.01236,-0.056306,0.066072,0.045014,0.078279,0.0028992
0.078279,-0.18296,0.03006,0.017548,0.049592,0.0383,0.029145,-0.074006
0.02121,-0.098116,0.0013733,-0.084382,0.059052,0.0071717,-0.0071717,-0.13138
0.0077821,-0.058747,-0.06302,-0.11948,0.060578,-0.015717,-0.023346,-0.103
-0.0065614,-0.045319,-0.10941,-0.015106,0.0013733,-0.0032044,-0.084382,-0.095369
-0.047761,0.0099184,-0.10025,-0.068208,0.037385,-0.018158,-0.081331,-0.059663
-0.10819,0.045624,-0.10544,-0.050507,0.037385,-0.015106,-0.051423,-0.030671
-0.13993,0.083162,-0.17655,-0.1735,0.015106,-0.019989,-0.0041199,0.048981
-0.11246,0.045319,-0.1445,-0.086824,-0.022736,0.016938,0.070344,0.11246
-0.093843,-0.020294,-0.12222,-0.056916,-0.073091,0.027924,0.055085,0.10452
-0.072786,0.005951,-0.103,-0.16678,0.009308,-0.034028,0.035554,0.15427
-0.095064,0.07248,-0.074617,-0.12436,-0.00015259,-0.019989,0.045014,0.17624
-0.075532,0.011749,-0.023651,-0.051728,-0.06363,0.029145,0.078584,0.16739
0.0074769,-0.11673,0.018463,0.013581,-0.064851,0.060578,0.11887,0.086213
0.01297,-0.11246,-0.0099184,-0.092622,0.019379,0.022736,0.060273,-0.030365
0.028229,-0.1268,0.028534,-0.10391,0.047761,0.0062562,0.054475,-0.018158
0.062104,-0.14176,-0.014801,0.0074769,-0.014496,0.052949,0.063935,-0.030671
0.076753,-0.077668,-0.0035096,-0.024872,0.036774,0.034638,-0.0022889,-0.077363
0.051118,-0.096284,0.023651,-0.014496,0.10422,-0.009308,-0.11765,-0.13687
0.064546,-0.1265,-0.0065614,-0.075837,0.084077,0.00015259,-0.14603,-0.13382
0.02121,-0.058747,-0.058442,-0.103,0.095979,-0.034943,-0.011444,-0.10544
-0.016327,-0.010529,-0.10025,-0.064851,0.044099,-0.044404,-0.0065614,-0.093233
-0.074617,0.047456,-0.14969,-0.078584,0.010834,-0.065766,-0.20249,-0.039826
-0.049592,-0.0080873,-0.13626,-0.17411,0.069734,-0.11368,-0.23117,-0.015412
-0.094148,0.056611,-0.14939,-0.11856,-0.035248,0.023346,0.049592,0.039521
-0.10575,0.060273,-0.11887,-0.050202,-0.15061,0.16312,0.12009,0.067292
-0.11215,0.063325,-0.12436,-0.13291,-0.11368,0.092622,0.10239,0.092622
-0.081025,0.044709,-0.09659,-0.13077,-0.057832,0.018158,0.092622,0.099947
-0.082856,0.01236,-0.04654,-0.10117,0.034943,0.00076295,0.066072,0.085603
-0.050507,-0.045319,-0.035554,-0.06424,0.040131,0.041657,0.058442,0.1088
-0.0074769,-0.078279,-0.0028992,-0.074617,-0.022126,0.029145,0.0383,0.084382
0.029145,-0.11002,0.011749,-0.051118,-0.076143,0.044099,-0.0056458,0.043793
0.058137,-0.10391,0.02884,-0.045014,-0.040742,0.033112,-0.0090028,0.019074
0.08011,-0.1442,0.024262,0.039216,0.034028,-0.043793,0.041657,0.015717
0.035859,-0.096284,0.0047303,-0.087739,0.10575,-0.045319,0.032197,-0.048981
0.035248,-0.11246,-0.0077821,-0.060578,0.10361,0.018463,0.052949,-0.078889
0.0050355,-0.074617,-0.043793,-0.059358,0.20432,-0.045014,0.023651,-0.085298
-0.027619,-0.034028,-0.080415,-0.074617,0.18692,-0.0050355,0.029755,-0.092012
-0.046845,-0.02945,-0.075837,-0.042267,-0.074617,0.072786,0.084688,-0.022126
-0.065766,-0.023651,-0.08896,-0.0206,-0.027008,-0.019989,-0.10147,-0.0056458
-0.12222,0.08072,-0.17594,-0.19516,0.013275,-0.005951,-0.23972,0.048066
-0.10178,0.063935,-0.15885,-0.30716,-0.027619,0.016938,0.0065614,0.095674
-0.077363,0.023957,-0.10605,0.08011,-0.099641,0.041657,0.13993,0.12222
-0.10239,0.0795,-0.12619,-0.021515,-0.059358,0.01236,0.054475,0.051728
-0.061799,0.031586,-0.10208,-0.15183,0.026093,-0.0383,0.077668,0.054475
-0.072175,0.017853,-0.052033,-0.15122,-0.048676,0.023041,0.14725,0.032197
-0.09781,0.014191,-0.046845,-0.17319,-0.030976,0.03006,0.020905,-0.035248
-0.013581,-0.082551,0.0206,-0.014496,-0.10849,0.061189,0.030976,0.081636
0.066377,-0.16251,0.058137,0.081941,-0.069123,-0.0071717,0.048066,0.053864
0.025177,-0.10483,0.031891,-0.10727,0.10666,-0.040436,-0.043488,-0.055695
0.045624,-0.12558,0.016022,-0.077058,0.065766,0.097505,0.0010681,-0.036774
0.077974,-0.15061,-0.00076295,0.0077821,0.0010681,0.24338,0.016022,-0.033417
0.059968,-0.10361,-0.012665,-0.014496,-0.0013733,0.3856,-0.027008,-0.079805
0.031891,-0.086519,-0.065766,-0.045319,0.10941,-0.10147,-0.0972,-0.097505
-0.011139,-0.046235,-0.10086,-0.077668,0.11398,-0.53086,-0.046845,-0.081941
-0.043793,-0.019989,-0.074311,-0.15213,0.072175,-0.063325,-0.012055,-0.070954
-0.037385,-0.042267,-0.10544,0.032807,0.014801,-0.0068666,0.02945,-0.011139
-0.10727,0.067597,-0.17319,-0.093538,0.031586,-0.051728,0.032807,0.013581
-0.12161,0.15824,-0.15518,-0.29343,0.055695,-0.032807,0.063325,0.07187
-0.12558,0.11002,-0.11032,-0.070954,-0.10147,0.060273,0.13809,0.14023
-0.11551,0.08835,-0.10971,-0.0068666,-0.1091,0.056611,0.087434,0.16739
-0.027314,-0.057832,-0.074617,-0.10513,0.0019837,0.00045777,-0.11185,0.17624
0.002594,-0.13748,0.0077821,-0.10361,-0.022431,0.038605,-0.18204,0.091707
-0.035859,-0.14145,-0.026093,-0.16342,-0.037079,0.024872,0.0047303,0.017243
0.013275,-0.21225,0.041962,-0.033417,-0.016632,0.014801,0.13993,0.072175
0.041352,-0.16007,0.02945,-0.020905,0.02884,0.043488,0.086213,0.029755
0.027008,-0.034638,-0.0086976,-0.023041,0.057527,0.024262,0.023651,-0.050507
-0.0010681,0.0038148,0.0056458,-0.023041,0.054475,0.02884,0.03769,-0.059663
0.019684,-0.058747,-0.0077821,-0.00015259,0.073701,0.020905,0.061494,-0.076143
0.013886,-0.076143,-0.018463,-0.03769,0.057527,0.022736,-0.0035096,-0.05539
-0.039216,-0.0013733,-0.067292,-0.13291,0.066377,-0.005951,-0.20951,-0.035554
-0.013581,-0.016022,-0.085908,-0.048981,0.0038148,0.02121,-0.043488,-0.049287
-0.0083925,-0.0056458,-0.11276,-0.11856,-0.037079,0.050813,0.12375,-0.040436
-0.084382,0.045319,-0.1387,-0.12345,0.023957,0.0022889,0.015717,-0.04654
-0.065461,0.028229,-0.14511,-0.10575,-0.041657,0.010224,-0.020905,0.017548
-0.033417,-0.032197,-0.15518,-0.038911,-0.033112,-0.020294,-0.082856,0.055695
-0.065461,0.032197,-0.1088,-0.1799,0.039826,-0.077668,-0.20645,-0.027314
-0.097505,0.028229,-0.084688,-0.13993,-0.022126,-0.027008,-0.095674,0.0053407
-0.062715,-0.02884,-0.063935,-0.086519,-0.10361,0.048371,0.12711,0.097505
-0.034638,-0.044404,-0.047761,-0.030976,-0.037079,0.019989,0.11246,0.096284
-0.0022889,-0.037385,-0.0099184,-0.045624,0.011749,0.00015259,0.078584,0.070649
-0.0071717,-0.01297,0.01236,-0.038911,0.033722,-0.0074769,0.077974,0.0206
0.028229,-0.11826,0.050813,0.028534,0.013886,0.0053407,0.043183,-0.020905
0.029145,-0.14786,0.035554,-0.10849,0.039521,0.016022,0.013886,-0.011139
-0.009308,-0.075532,0.019989,-0.1091,0.081636,-0.0090028,0.00076295,-0.040436
0.020905,-0.11398,0.0206,-0.045624,0.025483,0.036469,0.044404,-0.028534
0.0096132,-0.070039,-0.034028,0.0013733,0.029755,0.050202,0.03769,-0.047761
-0.034638,-0.026398,-0.10422,-0.064851,0.099336,0.0068666,-0.034333,-0.074617
-0.025177,-0.039826,-0.10117,-0.037385,0.045014,0.052644,-0.010529,0.0038148
-0.058747,0.009308,-0.13535,-0.13962,0.034943,0.023346,0.011749,0.0077821
-0.11063,0.072175,-0.15457,-0.2034,0.012665,0.0086976,0.011139,0.051728
-0.08896,0.032502,-0.10544,-0.12039,-0.062715,0.030671,0.054475,0.081636
-0.086213,0.027619,-0.17075,-0.026398,-0.083162,0.061189,0.13169,0.10452
-0.063935,0.035248,-0.1033,-0.094759,-0.023041,0.0032044,0.10758,0.050507
-0.073396,0.023651,-0.074922,-0.10361,0.024262,-0.036164,0.016938,0.019074
-0.042878,-0.0068666,-0.052338,-0.13474,-0.017243,-0.027314,-0.087434,0.068208
-0.028229,-0.0041199,-0.026398,-0.029145,-0.068818,-0.009308,-0.054475,0.076143
-0.014191,-0.040436,0.024262,-0.005951,-0.020294,-0.0068666,-0.030365,0.05539
0.035554,-0.10025,0.033722,-0.079805,0.068513,0.028229,-0.015717,0.015717
0.048981,-0.093843,-0.031891,-0.02945,0.027924,0.064851,0.0016785,-0.041962
0.072786,-0.098116,0.014801,-0.050202,0.022126,0.021515,-0.018463,-0.11368
0.059663,-0.15579,0.027314,-0.0972,0.07187,-0.033417,-0.034333,-0.12863
0.017853,-0.13199,0.0019837,-0.075837,0.049897,-0.016022,-0.0022889,-0.059052
-0.024872,-0.093843,-0.035554,-0.062715,0.041657,0.016327,0.016022,-0.0080873
-0.019379,-0.082856,-0.076143,-0.038605,0.0010681,0.031281,0.04593,0.014801
-0.013275,-0.076143,-0.095064,-0.00015259,0.023957,0.01297,0.029145,0.015412
-0.05478,0.041352,-0.14176,-0.085298,0.028229,-0.027619,-0.0019837,-0.00076295
-0.087434,0.066377,-0.15152,-0.13169,0.0013733,-0.02182,-0.011139,0.0099184
-0.10117,0.095979,-0.14908,-0.15946,0.030976,0.020294,0.012665,0.049592
-0.093233,0.061494,-0.12741,-0.076448,-0.023651,0.028534,0.022736,0.075227
-0.093843,0.073396,-0.0972,-0.10636,-0.051728,-0.0077821,0.016632,0.098116
-0.056916,0.03006,-0.068818,-0.0053407,-0.032502,-0.0016785,0.036774,0.085603
-0.015412,-0.078889,-0.052338,-0.087434,-0.017548,-0.0074769,0.044404,0.062104
-0.012055,-0.078279,-0.005951,-0.24094,0.032197,-0.027619,0.029145,0.024262
0.015717,-0.095979,0.0096132,-0.039521,-0.090181,0.077668,0.077363,0.01297
0.0071717,-0.081636,0.020294,-0.059358,-0.059358,0.083162,0.098421,-0.0068666
0.019684,-0.10239,0.010529,-0.035248,0.043793,0.010224,0.06424,-0.025483
0.034943,-0.12284,0.0099184,0.049287,0.027008,0.033112,0.011444,-0.051423
0.034943,-0.10605,-0.0019837,-0.08896,0.056306,0.00015259,-0.026398,-0.074922
0.048371,-0.13962,-0.0090028,-0.069734,0.027314,0.0028992,-0.060578,-0.067292
-0.0050355,-0.085908,-0.065156,-0.061799,0.041657,0.00076295,-0.1326,-0.066072
-0.039216,-0.031586,-0.074311,-0.066987,0.11704,-0.0074769,-0.14237,-0.033722
-0.069734,0.02945,-0.10361,-0.068513,0.059358,0.009308,-0.14389,-0.0047303
-0.077974,0.072175,-0.15,-0.084993,0.0019837,-0.014801,-0.041962,0.028229
-0.085298,0.062409,-0.14572,-0.13504,0.002594,-0.085298,0.031586,0.027619
-0.083162,0.075227,-0.14176,-0.11765,0.0016785,-0.035248,0.053864,0.058137
-0.084993,0.093538,-0.11368,-0.10452,-0.039826,0.040131,0.064546,0.072175
-0.095674,0.068208,-0.10361,-0.12802,-0.041047,0.0019837,0.043183,0.059968
-0.075532,-0.01297,-0.063935,-0.088655,-0.057832,0.034943,0.058137,0.070344
-0.019684,-0.16159,-0.0090028,-0.063325,-0.059663,0.040742,0.085908,0.10086
0.0065614,-0.13779,-0.016938,-0.025177,-0.0013733,0.012055,0.035554,0.013275
0.010834,-0.095979,0.0047303,-0.023041,0.017243,0.022736,0.040131,-0.031586
0.023346,-0.14603,0.030976,-0.019074,0.051423,0.011444,0.039216,-0.012055
0.020905,-0.08072,0.030365,-0.11704,0.077668,0.020294,0.020294,0.018158
0.045624,-0.081331,0.0071717,-0.014801,0.017548,0.068208,0.052949,0.028229
0.026093,-0.082856,0.002594,-0.018158,0.030365,0.027924,0.02121,-0.0090028
0.010529,-0.059968,-0.02884,-0.11154,0.075532,-0.0068666,0.0086976,-0.027619
-0.030365,-0.027924,-0.074311,-0.040436,0.016632,0.031281,0.076143,-0.0065614
-0.030671,-0.014801,-0.11978,-0.11032,0.010529,0.036774,0.1146,-0.012665
-0.050813,0.028534,-0.13565,-0.12528,0.032197,0.03006,0.090181,-0.035859
-0.062104,0.0383,-0.14664,-0.077058,-0.018463,0.058747,0.046235,-0.0019837
-0.078279,0.073091,-0.1387,-0.094453,0.0056458,-0.016327,-0.16007,0.023346
-0.090181,0.035554,-0.12284,-0.14481,0.0065614,-0.095979,-0.35019,0.041352
-0.069429,0.034333,-0.0972,-0.031586,-0.03769,-0.075837,-0.062104,0.039826
-0.079805,0.034028,-0.10941,-0.059663,-0.0065614,-0.092012,0.045624,0.014191
-0.08835,0.044099,-0.055695,-0.15549,0.068513,-0.081636,0.025177,0.0010681
-0.0062562,-0.10819,-0.016632,-0.061189,-0.092012,0.10269,0.067597,0.04715
0.0053407,-0.0206,-0.00015259,-0.12436,-0.092012,0.11368,0.037385,0.052949
0.0028992,-0.11093,0.050813,0.091402,-0.0041199,0.043183,-0.0053407,-0.011444
0.018158,-0.10788,0.0047303,-0.14145,0.024872,0.026703,0.059052,0.049287
0.058137,-0.20096,0.055085,-0.069123,0.059358,0.022126,0.025177,0.014191
0.041047,-0.12467,-0.014191,0.0071717,-0.0383,0.034028,-0.016938,-0.052949
0.0035096,-0.077974,0.036469,-0.11643,-0.0032044,-0.00076295,-0.023651,-0.061189
-0.0080873,-0.099641,-0.021515,-0.048676,-0.06363,0.073091,0.037079,-0.0062562
-0.012665,-0.12772,-0.10269,-0.005951,0.053559,0.044709,0.032197,-0.012665
-0.016938,-0.0044251,-0.13291,-0.11307,0.16495,-0.052949,-0.049897,-0.057221
-0.093843,0.1265,-0.14939,-0.084382,0.2623,-0.10636,-0.055085,-0.035554
-0.079805,0.075227,-0.15854,-0.089876,0.11368,-0.0053407,0.01297,0.0383
-0.075532,0.093538,-0.14969,-0.15366,-0.087434,0.041352,0.070344,0.059052
-0.081025,0.077974,-0.1265,-0.14847,-0.064546,-0.014191,0.13016,0.054475
-0.081941,0.051728,-0.11276,-0.11948,-0.08072,-0.00076295,0.092012,0.04715
-0.086213,0.034028,-0.065766,-0.13321,-0.070649,0.025483,-0.040436,0.086213
-0.02884,-0.030365,-0.040131,-0.023651,-0.081025,0.051728,-0.0096132,0.12192
0.0028992,-0.024872,-0.0038148,0.005951,-0.025177,0.0047303,0.019074,0.092622
0.041047,-0.15,0.048676,0.0038148,0.045014,-0.019074,0.0071717,0.015106
0.056001,-0.19669,0.037995,-0.14145,0.067597,-0.023041,-0.01236,-0.034333
0.05417,-0.13993,0.013581,-0.081331,0.025177,0.010834,-0.012055,-0.032502
0.018769,-0.121,0.027619,0.042573,-0.0071717,0.040131,-0.0047303,-0.049592
0.039216,-0.17594,0.0077821,-0.04715,0.049287,0.009308,0.00076295,-0.060883
0.041352,-0.18875,-0.015717,-0.009308,0.086519,-0.050202,-0.002594,-0.085908
-0.0080873,-0.086519,-0.076753,-0.11368,0.065461,-0.070344,0.013581,-0.10239
-0.043183,0.037995,-0.10361,-0.29862,0.009308,0.025177,0.036774,-0.052033
-0.062104,0.024262,-0.098421,0.28031,-0.028534,0.10941,0.043488,0.0065614
-0.095979,0.054475,-0.15152,-0.17319,0.012055,0.1799,0.013886,-0.014801
-0.12436,0.10422,-0.16251,-0.31846,-0.012665,0.34836,0.031586,0.027619
-0.11612,0.10117,-0.15305,0.15152,-0.099031,0.088655,0.052949,0.095369
-0.14603,0.11337,-0.121,-0.12894,0.027314,-0.53819,0.03769,0.065156
-0.14023,0.082246,-0.1091,-0.20676,-0.010834,-0.084688,0.1857,0.10452
-0.064546,-0.012665,-0.053254,-0.10239,-0.081025,0.103,0.11673,0.16617
-0.041047,-0.026703,-0.030365,-0.061494,-0.015412,-0.011444,-0.13931,0.11551
0.015717,-0.062715,-0.005951,-0.044404,0.015717,0.025483,-0.0074769,0.084077
0.067903,-0.15793,0.030671,0.010529,0.022126,0.0013733,-0.16312,0.044404
0.05539,-0.12772,0.02182,-0.069734,0.062104,-0.031586,-0.34409,-0.053864
0.048371,-0.089876,0.033417,0.026093,0.057527,-0.0047303,-0.0795,-0.065156
0.058137,-0.11215,-0.0096132,-0.056306,0.049897,0.0080873,0.067903,-0.047761
0.052033,-0.1323,-0.022736,-0.14664,0.1088,-0.011749,0.059968,-0.059663
0.020905,-0.087434,-0.011444,-0.0050355,-0.0056458,0.057527,0.11154,-0.081331
-0.017548,-0.076753,-0.031891,-0.02121,0.005951,0.046235,0.1445,-0.06302
0.013581,-0.032807,-0.1265,-0.08835,0.044099,0.016632,0.058137,-0.022126
-0.078279,0.074006,-0.18143,-0.23819,0.0383,-0.016327,-0.25681,-0.073396
-0.074006,0.0096132,-0.12924,-0.057527,-0.036774,0.0062562,-0.11307,-0.031281
-0.10056,0.048066,-0.1149,-0.044709,-0.069429,0.018769,0.087434,0.027924
-0.083467,0.032197,-0.099031,-0.096284,0.011749,-0.031281,0.074617,0.037385
-0.081941,0.051728,-0.084077,-0.2153,-0.034638,0.011444,0.082856,0.10788
-0.059052,0.016022,-0.10849,-0.036469,-0.042878,0.0047303,0.041047,0.11398
-0.040436,0.048066,-0.064546,-0.1561,-0.037079,0.0077821,0.039826,0.092622
-0.017243,-0.034638,-0.014801,-0.11185,-0.011444,0.026703,0.045319,0.039826
0.0050355,-0.11826,0.013275,0.013581,-0.057832,0.061189,0.055085,0.0019837
0.024872,-0.12406,0.035554,-0.014496,0.0096132,0.0062562,0.013581,-0.026703
0.013275,-0.077668,0.0038148,-0.068513,0.081941,-0.0096132,0.022736,-0.040436
0.032197,-0.11429,0.024872,-0.064851,0.039216,0.05539,0.070344,-0.019684
0.062409,-0.15488,-0.0022889,0.02945,-0.0068666,0.093538,0.057221,-0.032807
0.015717,-0.091707,-0.0074769,-0.12284,0.062409,0.01236,-0.034333,-0.10391
-0.011444,-0.090486,-0.034638,-0.0062562,0.0795,-0.017548,-0.075532,-0.081636
-0.059968,-0.0028992,-0.082856,-0.11154,0.05539,0.002594,-0.054475,-0.042573
-0.059052,-0.011749,-0.098726,-0.028229,0.031891,-0.041047,-0.011444,-0.00076295
-0.074006,0.022126,-0.14878,-0.13993,0.014191,-0.063325,-0.0035096,0.028229
-0.045624,0.0047303,-0.15396,-0.045319,0.025483,-0.0013733,0.0096132,0.060273
-0.10208,0.099947,-0.15,-0.10117,-0.024262,-0.0080873,-0.0050355,0.059663
-0.12253,0.070344,-0.10941,-0.22568,-0.048676,0.0047303,0.025177,0.066072
-0.093538,0.049897,-0.10941,-0.12314,-0.070039,0.025483,0.049592,0.103
-0.070649,0.032197,-0.083467,-0.12253,-0.0068666,-0.010224,0.027314,0.087434
-0.016938,-0.088655,-0.010224,0.019074,-0.046845,0.021515,0.039521,0.076448
-0.017548,-0.0795,0.0019837,0.036774,-0.019379,-0.0016785,-0.0013733,0.041657
-0.035248,-0.026398,0.020905,-0.15793,0.068208,-0.0028992,-0.0041199,0.012665
0.0099184,-0.10147,0.020294,-0.0050355,-0.0050355,0.074311,0.06424,0.069429
0.034333,-0.11826,-0.0044251,0.0044251,-0.0047303,0.039521,0.045014,0.046235
0.078584,-0.18173,0.032197,-0.18387,0.13016,-0.024872,-0.040742,-0.041962
0.033417,-0.10147,-0.028229,-0.045014,0.0047303,0.039216,-0.032807,-0.092012
0.023346,-0.084382,-0.02182,-0.046845,-0.0053407,0.034028,-0.0056458,-0.056611
-0.0086976,-0.059968,-0.055085,-0.023346,0.042267,0.018158,0.016632,-0.026703
-0.012055,-0.021515,-0.095064,-0.040436,0.027314,-0.0080873,0.025483,-0.031281
-0.035248,0.025483,-0.13657,-0.11093,0.055085,-0.035859,0.015106,-0.023346
-0.048676,0.049897,-0.15488,-0.095064,0.074006,-0.025483,0.010529,0.00076295
-0.065156,0.11673,-0.15579,-0.11093,0.0090028,-0.050507,0.015412,0.0050355
-0.084382,0.13169,-0.13046,-0.072786,-0.052644,-0.030365,-0.059968,-0.027314
-0.098421,0.069429,-0.096284,-0.13748,-0.13443,0.092927,-0.078279,0.015412
-0.074922,-0.009308,-0.11063,-0.11582,-0.11337,0.0795,-0.022126,0.063935
-0.051728,-0.078279,-0.014801,-0.060578,-0.037079,0.0077821,0.047761,0.10391
-0.016327,-0.15,0.017853,-0.071565,0.032807,-0.013581,0.064546,0.11002
0.022736,-0.19364,0.019379,-0.044404,0.024872,0.01297,0.099641,0.07248
0.057221,-0.18296,-0.013581,-0.047456,0.017548,0.023957,0.075837,0.028229
0.039826,-0.050813,0.0053407,-0.028534,0.045014,0.0050355,0.024872,-0.021515
0.014191,-0.023346,-0.0041199,-0.00015259,0.060273,-0.0056458,-0.024872,-0.066987
-0.016938,-0.036774,-0.026398,-0.12589,0.074006,-0.0074769,-0.040436,-0.096895
-0.022126,-0.080415,-0.00015259,-0.022736,0.055085,0.00076295,-0.037079,-0.098116
0.0035096,-0.13138,-0.0038148,-0.021515,0.011749,0.022126,-0.05478,-0.078279
-0.018463,-0.081941,-0.058137,-0.12314,0.065461,-0.026398,-0.13169,-0.076143
-0.075837,0.016327,-0.11643,-0.13443,0.014191,-0.0047303,-0.10575,-0.024262
-0.08957,0.087129,-0.12924,-0.0972,-0.015412,0.030976,0.052033,0.04715
-0.10849,0.086213,-0.14298,-0.052949,-0.014191,0.024872,0.10422,0.084688
-0.10025,0.084382,-0.16861,-0.09659,-0.0028992,0.0071717,0.087434,0.11246
-0.087129,0.011139,-0.11032,-0.13779,-0.013275,-0.00076295,0.051728,0.082246
-0.086213,0.0010681,-0.092622,-0.11307,-0.095979,0.012055,0.033112,0.060578
-0.064546,0.019379,-0.12711,-0.1088,-0.073396,0.0071717,0.034028,0.060578
-0.043488,-0.00015259,-0.0044251,-0.052949,0.010529,0.0083925,0.032807,0.049897
-0.0080873,-0.066377,-0.046235,-0.046235,0.059358,0.018158,0.044099,0.048371
0.060578,-0.11734,-0.00015259,-0.077363,0.039521,-0.0047303,0.026703,0.033112
0.052033,-0.11551,0.034638,-0.063325,0.009308,0.00076295,-0.022431,-0.061799
0.0071717,-0.031586,0.00076295,-0.083467,0.023041,0.034028,0.01297,-0.035554
0.032807,-0.078584,0.028534,-0.0032044,0.0041199,0.04654,0.066377,0.02121
0.041047,-0.10758,0.0077821,0.0077821,0.0056458,0.060273,0.094759,0.015717
0.044099,-0.11093,-0.0056458,-0.044709,0.075532,0.031281,0.043488,-0.079194
0.018158,-0.096284,-0.050507,-0.08957,0.078584,-0.019379,-0.0041199,-0.098421
-0.014191,-0.076753,-0.069429,-0.056306,0.044404,-0.016022,-0.0056458,-0.084077
-0.048371,-0.050813,-0.1088,-0.11368,0.012665,-0.005951,-0.024567,-0.050507
-0.044404,-0.044099,-0.1268,-0.083772,0.0035096,0.0053407,-0.075532,0.02182
-0.074006,0.042573,-0.15702,-0.13199,0.0028992,-0.012665,-0.10697,0.014801
-0.072175,0.11124,-0.15,-0.055085,-0.030976,-0.017243,-0.090181,0.025788
-0.074006,0.032502,-0.10452,-0.14176,-0.019379,-0.048981,-0.065766,0.038911
-0.12192,0.068513,-0.11826,-0.14755,0.00076295,-0.022126,0.035859,0.04715
-0.13169,0.063325,-0.072175,-0.12192,-0.060883,0.016022,0.16281,0.10391
-0.054475,-0.042878,-0.033112,-0.079805,-0.081636,0.040131,0.19547,0.17227
-0.0068666,-0.098116,0.0044251,-0.056306,-0.028229,0.021515,0.037079,0.066072
-0.0080873,-0.093843,0.030365,0.014496,0.011139,-0.0096132,-0.2678,-0.024872
-0.01297,-0.056611,0.017548,-0.090791,0.049592,-0.022736,-0.19699,-0.049592
-0.002594,-0.076143,0.022736,-0.036164,0.035554,0.052338,0.10849,-0.035859
0.031586,-0.079805,0.0077821,0.011749,0.012055,0.081025,0.13077,0.0096132
0.023041,-0.12894,-0.0053407,-0.073091,0.085603,-0.0022889,0.043793,-0.043183
0.027619,-0.121,-0.019989,-0.095674,0.052033,0.044404,0.066377,-0.014801
-0.00015259,-0.071565,-0.07187,-0.073091,0.00076295,0.068208,0.036164,0.0013733
-0.017548,-0.045624,-0.086824,-0.064546,0.026703,0.01236,-0.00045777,0.016938
-0.050813,0.027619,-0.12131,-0.08835,0.022126,0.0083925,0.023041,0.054475
-0.068818,0.052338,-0.17777,-0.023651,0.019684,-0.013886,-0.009308,0.052033
-0.039216,0.040742,-0.17685,-0.11795,-0.020905,0.0044251,0.039826,0.065156
-0.059663,-0.0062562,-0.082551,-0.18021,-0.065156,-0.0019837,0.027619,0.02945
-0.048676,-0.020294,-0.094759,-0.044404,-0.081331,-0.059052,0.011139,-0.0056458
-0.082856,0.093538,-0.12558,-0.17807,-0.012665,-0.066377,0.057221,0.029145
-0.066072,0.025788,-0.06302,-0.13382,0.002594,0.02884,0.083467,0.034333
-0.024567,-0.039826,-0.029755,-0.017548,-0.018158,0.13596,0.081331,0.033722
0.015717,-0.08835,0.0083925,-0.01297,0.20188,0.22141,-0.020905,-0.023651
0.017853,-0.06424,0.0035096,-0.086824,0.06302,0.25162,-0.29007,-0.067903
0.027619,-0.096284,0.036774,-0.04654,0.0074769,-0.42069,-0.20645,-0.062104
0.05417,-0.15579,0.018463,-0.0065614,0.024262,-0.27939,0.045319,-0.043488
0.052033,-0.13535,-0.00015259,-0.048676,0.039521,0.058442,0.03006,-0.060578
-0.0074769,-0.084382,-0.016022,-0.084688,0.023651,0.031281,0.0096132,-0.066072
0.068513,-0.19242,-0.016327,0.079194,-0.04593,0.07248,0.057221,-0.0074769
-0.025483,-0.013581,-0.077058,-0.16709,-0.016327,0.0022889,0.041047,-0.033417
-0.066072,0.012055,-0.084382,-0.0972,0.016938,-0.0056458,-0.011444,-0.064851
-0.0795,0.034028,-0.14298,-0.061799,-0.0050355,0.028229,0.056306,0.036774
-0.11215,0.095674,-0.14786,-0.11795,0.035554,-0.00076295,0.067903,0.071565
-0.099031,0.048371,-0.12924,-0.1149,0.0077821,0.00045777,0.091707,0.067292
-0.10178,0.062409,-0.11765,-0.042878,-0.035248,0.017853,0.1323,0.076448
-0.083772,0.03769,-0.10727,-0.066987,-0.027008,0.0099184,0.10361,0.07126
-0.045319,0.0062562,-0.11093,-0.060883,0.005951,-0.014801,-0.08835,0.11002
-0.07126,0.024567,-0.077363,-0.19699,0.0086976,-0.033112,-0.27329,0.059052
0.0010681,-0.10025,-0.0038148,-0.2092,-0.065766,0.027924,-0.047761,0.041657
-0.0206,-0.034028,0.0041199,-0.11551,-0.10391,0.087739,0.057527,0.030365
0.023041,-0.11185,0.041657,0.034028,-0.022431,0.041047,0.017853,0.0016785
0.039216,-0.14023,0.0099184,-0.21195,0.053254,-0.075532,0.016632,-0.0071717
0.063325,-0.13016,0.036774,0.27573,0.076143,-0.012055,0.019074,-0.030671
0.081941,-0.14633,0.026703,-0.044709,0.029145,0.095064,0.086824,-0.043488
0.063325,-0.13016,-0.017853,0.014496,0.065156,-0.017243,0.018769,-0.11582
-0.035859,-0.034943,-0.06424,-0.17685,0.11582,-0.051423,-0.022126,-0.16556
-0.084382,-0.017548,-0.06424,-0.090791,0.025788,0.078279,0.057221,-0.03769
-0.086213,0.029755,-0.11215,-0.06363,-0.06363,0.11734,0.10025,0.121
-0.11856,0.076448,-0.13993,-0.10666,0.026093,0.018463,0.016938,0.075532
-0.11154,0.045319,-0.1207,-0.08957,0.0071717,0.014191,-0.0090028,0.073701
-0.10758,0.051728,-0.16129,-0.095064,-0.0032044,-0.012665,-0.052644,0.075837
-0.08896,0.035859,-0.18143,-0.13443,-0.012665,-0.023651,-0.041352,0.086519
-0.059052,0.0032044,-0.073396,-0.082856,-0.014801,-0.027314,-0.020905,0.053559
-0.06302,0.0083925,-0.077058,-0.068818,-0.0096132,-0.027008,-0.019379,0.01297
-0.031586,-0.032502,-0.0068666,-0.058442,-0.00076295,-0.020905,0.017548,0.040436
0.0035096,-0.072175,-0.016327,-0.083467,-0.0080873,0.0038148,0.039216,0.072175
-0.0032044,-0.049897,0.0044251,-0.057221,-0.0050355,0.0077821,0.031281,0.02121
0.025177,-0.090791,0.032197,-0.040131,-0.0074769,0.014801,0.031586,-0.012055
0.023346,-0.074006,0.0099184,-0.025177,0.0096132,0.020294,0.023651,-0.019379
0.045624,-0.121,0.024872,-0.046845,0.031891,0.019074,0.0047303,-0.039521
0.05539,-0.1564,-0.0028992,-0.022126,0.036774,0.021515,0.0035096,-0.059052
0.032807,-0.11093,-0.011444,-0.062409,0.051118,0.012665,0.016938,-0.077058
-0.0028992,-0.052644,-0.072175,-0.12192,0.049897,0.019379,0.041047,-0.079194
0.015412,-0.10666,-0.066987,-0.018463,-0.0010681,0.016632,0.047456,-0.060883
-0.017243,0.0044251,-0.14176,-0.021515,0.0206,0.0053407,-0.017548,-0.043793
-0.035248,-0.016022,-0.12741,-0.14206,0.08072,0.00076295,-0.064546,-0.030671
-0.08896,0.095979,-0.13901,-0.1854,-0.002594,-0.0053407,0.0099184,0.020905
-0.10819,0.11063,-0.13504,-0.092317,-0.079805,0.013275,0.035859,0.07248
-0.11429,0.09781,-0.14145,-0.19181,-0.08896,0.013886,0.033417,0.092622
-0.087129,0.070039,-0.11765,-0.065461,-0.056611,-0.0035096,0.0056458,0.057832
-0.052644,-0.023346,-0.064851,-0.10147,-0.0041199,-0.02884,-0.07187,0.022126
-0.074617,-0.013886,-0.031891,-0.094453,0.012665,0.0013733,-0.053864,0.067292
-0.046845,-0.076753,0.0080873,-0.067292,-0.031281,0.066377,0.10391,0.11917
0.009308,-0.12467,0.025483,-0.038911,-0.015412,0.052949,0.16007,0.13443
0.044404,-0.14298,0.045014,-0.026703,0.036774,0.036469,0.10575,0.066072
0.052338,-0.12009,0.029755,-0.015412,0.049897,0.018158,0.056611,-0.020294
0.040436,-0.10239,0.0047303,-0.060273,0.064546,0.0050355,0.035859,-0.073701
0.019989,-0.11948,0.0206,-0.023041,0.069734,0.00076295,0.034028,-0.089265
0.019989,-0.14694,-0.036774,-0.015106,0.039521,-0.00015259,-0.035248,-0.0972
-0.0090028,-0.040742,-0.1091,-0.051728,0.027314,-0.029755,-0.35477,-0.1445
-0.059358,0.069123,-0.12619,-0.058137,0.025788,-0.027314,-0.2153,-0.11154
-0.037385,0.045319,-0.13901,-0.0035096,0.081331,0.0038148,0.062409,-0.016327
-0.066682,0.039216,-0.13962,-0.23209,0.063935,0.012665,0.078279,0.027008
-0.094453,0.04715,-0.12619,-0.22751,-0.0383,-0.0032044,0.067903,0.066682
-0.11795,0.041352,-0.10727,-0.069734,-0.081331,-0.0016785,0.058442,0.095674
-0.091707,-0.020905,-0.094759,-0.15518,-0.070954,0.024262,0.044099,0.10788
-0.030365,-0.069429,-0.090791,-0.06424,-0.047761,-0.0019837,0.02884,0.084077
-0.019379,0.010224,-0.068818,-0.065156,0.0028992,-0.0096132,-0.0013733,0.039216
-0.031586,-0.014191,-0.0086976,-0.11948,-0.020294,0.00076295,-0.0013733,0.027619
-0.018463,-0.066987,0.016327,-0.066377,-0.070649,0.018463,0.026703,0.016938
0.021515,-0.11337,0.046235,-0.026093,0.025177,0.012665,0.033722,0.019989
0.039521,-0.1088,0.023651,0.0016785,0.083467,0.036469,0.039521,0.016022
0.055085,-0.1384,0.029755,-0.04715,0.053864,0.019074,0.041352,-0.0071717
0.099947,-0.14542,-0.0074769,-0.02121,0.04593,-0.0041199,0.016632,-0.030365
0.059968,-0.058137,-0.019074,0.032502,0.056916,-0.0077821,-0.010529,-0.068208
-0.011444,-0.057832,-0.035554,-0.049592,0.067903,-0.013275,-0.021515,-0.076143
-0.0096132,-0.048981,-0.1033,-0.16251,0.029755,0.019989,0.016022,-0.019684
-0.070649,0.030671,-0.16861,-0.081331,0.0096132,0.0013733,-0.015106,-0.045319
-0.093233,0.068513,-0.15518,-0.14755,-0.0022889,-0.01297,-0.056611,-0.068208
-0.11521,0.035859,-0.10361,-0.16556,-0.0035096,0.0086976,-0.018769,-0.018158
-0.1323,0.062715,-0.1326,-0.09781,-0.089876,0.035554,0.0035096,0.028229
-0.13687,0.07126,-0.098726,-0.058442,-0.032502,0.0206,0.039826,0.052033
-0.15824,0.05417,-0.12375,-0.092317,0.0206,-0.027619,0.036774,0.070039
-0.1146,0.011444,-0.070649,-0.17472,0.013581,-0.037995,0.048066,0.1326
-0.065461,-0.051423,-0.023957,-0.024872,-0.070954,0.011444,0.092927,0.17411
-0.0383,-0.031586,-0.027619,-0.041352,-0.020905,-0.033112,0.066682,0.10788
0.0053407,-0.077974,0.0096132,-0.091707,0.025177,-0.0050355,0.035554,0.070039
0.037995,-0.16648,0.059968,-0.0206,-0.071565,0.13779,0.025483,0.04593
0.070039,-0.13535,0.016327,0.018769,-0.043793,0.13352,0.037995,0.0028992
0.059663,-0.087434,-0.0047303,-0.07126,0.07248,0.042573,0.023041,-0.019379
0.043488,-0.10086,0.0019837,-0.098421,0.12314,-0.019074,-0.0206,-0.088045
0.04715,-0.11795,-0.026093,-0.022431,0.053864,0.01236,-0.0206,-0.079194
0.0099184,-0.0038148,-0.077363,-0.060578,0.041047,0.014191,-0.035248,-0.047456
-0.011139,0.010529,-0.10208,-0.058442,0.048371,-0.019074,-0.051728,-0.031891
-0.019684,-0.066987,-0.10117,-0.12314,0.062409,-0.027314,-0.045624,-0.055695
-0.051118,0.056611,-0.17899,-0.13596,0.021515,0.009308,-0.002594,-0.025788
-0.068818,0.051423,-0.10452,-0.11185,-0.0062562,-0.0013733,0.042878,0.00076295
-0.063325,-0.015717,-0.099336,-0.10239,-0.037079,0.016938,0.13169,0.024262
-0.049592,-0.049897,-0.11917,-0.12131,-0.049897,0.019379,0.077363,0.07126
-0.038605,-0.016327,-0.12436,-0.040436,-0.033112,-0.0090028,-0.011444,0.062104
-0.062715,0.039521,-0.068208,-0.076753,-0.0074769,-0.0086976,-0.002594,0.052033
-0.029755,-0.015412,0.0044251,-0.027008,0.002594,-0.0028992,-0.010529,0.068208
-0.010224,-0.079805,0.017243,-0.069734,0.0099184,-0.0041199,0.0077821,0.037995
0.010529,-0.084688,0.03006,0.02182,0.017243,-0.08011,-0.037079,-0.02945
0.049897,-0.12345,-0.013886,-0.068818,0.051728,-0.060578,-0.069429,-0.084077
0.03769,-0.076143,0.0074769,-0.17533,0.077668,0.010529,-0.078279,-0.10758
-0.0096132,-0.048676,0.0053407,-0.085908,0.011749,0.046845,-0.10452,-0.096284
-0.00076295,-0.10147,0.016327,0.017548,-0.084993,0.099031,-0.0050355,-0.048981
-0.0053407,-0.092927,-0.011749,-0.010834,-0.045014,0.067597,0.0795,0.052033
-0.048676,-0.035554,-0.087434,-0.13474,0.042878,0.020905,0.10697,0.031891
-0.035248,-0.0053407,-0.11307,-0.085908,0.032197,0.023041,0.15518,0.019684
-0.050813,0.014191,-0.15488,-0.061189,0.016022,0.018463,0.14511,-0.012055
-0.098116,0.087739,-0.16373,-0.11398,0.16251,-0.069123,0.10819,0.0056458
-0.11032,0.082246,-0.14115,-0.14267,0.1854,-0.067597,0.025788,0.023651
-0.13046,0.067597,-0.12314,-0.10056,-0.10361,0.042878,-0.4155,0.013886
-0.081636,-0.03769,-0.066682,-0.1207,-0.11368,-0.0056458,-0.41276,0.081636
-0.079805,-0.040742,-0.073396,-0.082856,-0.065461,0.012055,0.092317,0.095369
-0.088045,-0.011749,-0.039216,-0.059052,-0.043488,-0.010224,0.17288,0.078584
-0.0022889,-0.081331,-0.031891,0.018769,-0.042878,-0.019684,0.15488,0.12284
0.013275,-0.061799,-0.0080873,-0.20554,0.03006,0.020905,0.10849,0.066682
0.015106,-0.0383,0.02884,-0.040742,0.016022,0.15213,0.053864,0.013275
0.02182,-0.10208,0.031891,-0.041047,-0.053864,0.32456,0.034333,0.017243
0.062104,-0.11551,0.013275,-0.061189,-0.0035096,0.30228,-0.016938,-0.0090028
0.067903,-0.13382,0.021515,0.013886,0.082246,-0.36362,-0.041657,-0.056916
0.043793,-0.075837,-0.026093,-0.042878,0.092012,-0.34714,0.016938,-0.11398
0.041352,-0.11368,-0.0077821,-0.0096132,0.065766,0.019379,0.040436,-0.12741
0.047456,-0.11612,-0.11551,-0.092317,0.024262,0.0068666,0.11704,-0.10208
-0.0035096,-0.078279,-0.11917,-0.060578,0.060578,-0.033112,0.10452,-0.11063
-0.070954,0.0383,-0.13443,-0.11521,0.039216,-0.041047,-0.07187,-0.057832
-0.14664,0.11643,-0.1445,-0.14389,0.0056458,-0.010224,-0.076753,0.047456
-0.13169,0.098421,-0.13687,-0.13046,-0.085298,0.072786,0.030365,0.16556
-0.11612,0.06363,-0.11612,-0.099336,-0.084993,0.030671,0.017548,0.13504
-0.11124,0.074311,-0.11612,-0.12039,-0.02945,-0.035859,0.0086976,0.097505
-0.1091,0.069123,-0.091096,-0.14084,-0.0090028,-0.012665,0.012055,0.091402
-0.057832,-0.016022,-0.0383,-0.050202,-0.036469,0.056611,0.05417,0.12161
0.0035096,-0.11673,0.002594,-0.00076295,-0.02121,0.030671,0.03006,0.10422
0.019989,-0.11032,0.011749,-0.1033,0.040436,-0.013275,0.025177,0.013275
0.033417,-0.12222,0.037385,-0.1387,0.026703,0.016022,0.052033,-0.012055
0.079194,-0.16068,0.024262,0.21439,0.009308,0.036469,0.019074,-0.0053407
0.055695,-0.12894,0.031586,-0.11673,0.095369,-0.013581,-0.049592,-0.10941
0.0071717,-0.071565,-0.011749,-0.18357,0.060578,0.036469,-0.0022889,-0.10788
0.016632,-0.072786,-0.012665,0.0065614,0.0053407,0.10178,0.030365,-0.036469
-0.019074,-0.022736,-0.060883,-0.057221,0.041047,0.036469,-0.0028992,-0.010529
-0.041657,-0.027619,-0.086519,-0.040131,0.049592,-0.020905,-0.044709,-0.0044251
-0.053559,-0.021515,-0.12039,-0.13901,0.0086976,-0.0096132,-0.020905,-0.0065614
-0.096284,0.069123,-0.16495,-0.36484,0.0041199,0.013886,0.081636,-0.0071717
-0.066987,0.012055,-0.1323,0.3267,-0.062715,0.017243,0.13718,0.029755
-0.087129,0.089265,-0.15061,-0.18265,-0.0068666,-0.03006,-0.059358,-0.0035096
-0.09781,0.11215,-0.12131,-0.09781,0.018158,-0.033112,-0.23514,0.018769
-0.081941,0.063935,-0.11246,-0.14603,-0.059052,0.038911,-0.057221,0.067903
-0.077974,0.02121,-0.059358,-0.12345,-0.015717,0.014801,0.077363,0.0086976
-0.039521,-0.035554,-0.041657,-0.12802,-0.053864,0.02121,0.030365,0.022126
-0.034638,-0.084382,0.019379,-0.018158,-0.032502,0.034028,0.074006,0.053864
0.023346,-0.21042,0.047456,-0.00015259,-0.019379,0.038911,0.11154,0.060578
0.04715,-0.22568,0.0096132,-0.060578,0.060273,-0.0032044,0.10086,0.023957
0.034028,-0.17655,0.02884,-0.064546,0.070649,0.0062562,0.081636,-0.069429
0.070039,-0.13596,0.016632,-0.021515,0.019989,0.053254,0.051728,-0.0056458
0.060273,-0.11612,-0.0013733,-0.016327,0.053864,0.0028992,-0.1857,-0.0010681
0.048981,-0.056306,-0.047761,-0.068208,0.082551,-0.01297,-0.067292,-0.065156
0.009308,-0.002594,-0.077363,-0.066377,0.067903,-0.0013733,0.074617,-0.053864
-0.017243,-0.0074769,-0.092622,-0.06302,0.039521,0.01236,0.0010681,-0.063325
-0.030671,0.025177,-0.15122,-0.061189,0.011444,0.0044251,-0.041352,-0.052644
-0.063325,0.078279,-0.15183,-0.12161,0.036164,-0.0383,-0.12467,-0.047456
-0.095674,0.078584,-0.13443,-0.1146,0.02182,-0.043793,-0.099947,-0.0068666
-0.12863,0.084688,-0.11551,-0.11551,-0.030976,-0.0077821,0.013581,0.082551
-0.12741,0.06363,-0.10147,-0.11643,-0.060578,0.022126,0.083772,0.13077
-0.10422,0.055085,-0.096284,-0.11398,-0.054475,0.013886,0.082551,0.14939
-0.067903,-0.0096132,-0.043183,-0.067292,-0.045014,0.016327,0.067903,0.1445
-0.041657,-0.034943,-0.023651,-0.13107,-0.020905,0.010529,0.050202,0.10666
0.019989,-0.11643,0.0041199,-0.030976,-0.015412,0.027008,0.076143,0.092012
0.036774,-0.10147,-0.0086976,-0.066682,0.0074769,0.039521,0.059358,0.015412
0.027314,-0.15488,0.050202,-0.09659,0.041047,0.020294,0.022736,-0.052949
0.056306,-0.16678,0.049897,-0.025483,0.025788,0.024567,0.022736,-0.057527
0.049897,-0.13077,0.018158,-0.0086976,0.031891,0.029145,0.00045777,-0.047761
0.037079,-0.093538,-0.011749,-0.05417,0.075837,0.010529,-0.037385,-0.084382
0.031281,-0.077363,-0.066072,-0.034333,0.061494,0.02121,0.0086976,-0.072786
-0.010834,-0.046845,-0.10086,-0.037079,0.033722,0.018769,0.014191,-0.064546
-0.051728,-0.0096132,-0.1088,-0.10575,0.045014,-0.012665,0.032197,-0.029145
-0.077974,0.056001,-0.13169,-0.11154,0.0096132,0.00015259,0.030976,0.0028992
-0.10941,0.073396,-0.13046,-0.06302,-0.0062562,-0.018769,0.015412,0.024262
-0.15091,0.080415,-0.14725,-0.16159,-0.0019837,-0.028229,0.011444,0.047456
-0.12955,0.079194,-0.14298,-0.17807,-0.014191,-0.0013733,0.066377,0.058442
-0.11948,0.077668,-0.10819,-0.06424,-0.12528,0.063325,0.10422,0.064546
-0.096895,0.033112,-0.069429,-0.033112,-0.043793,0.00045777,-0.14023,0.005951
-0.08835,-0.0068666,-0.018158,-0.042878,-0.013581,0.0019837,-0.15274,0.059358
-0.022736,-0.088655,-0.012665,-0.19608,0.060273,0.056611,0.1384,0.13291
0.041657,-0.13382,0.031891,-0.016938,0.015106,0.066682,0.12833,0.11093
0.051728,-0.1384,0.030976,-0.018158,-0.043183,-0.0010681,0.0013733,-0.00076295
0.047761,-0.12894,0.0206,-0.11337,0.053254,-0.026398,-0.0083925,0.0068666
0.051728,-0.15213,0.015412,-0.087739,0.066072,0.037079,0.0096132,0.017548
0.059358,-0.13748,-0.00015259,-0.041352,0.039826,0.073091,0.0050355,-0.039216
0.027008,-0.077974,-0.026398,0.029755,0.044099,0.0044251,-0.042573,-0.1146
0.019684,-0.056916,-0.066072,0.1088,0.032807,-0.010224,-0.049592,-0.077058
0.029755,-0.045319,-0.085298,-0.20523,0.030976,-0.018158,-0.026703,-0.039216
-0.050813,0.034333,-0.15488,-0.14694,0.045014,-0.04654,-0.063325,-0.077058
-0.070649,0.052033,-0.16922,-0.11032,0.053864,-0.037995,-0.052033,-0.049897
-0.11124,0.10361,-0.15274,-0.18509,-0.013581,-0.0080873,0.023651,0.011749
-0.094148,0.015106,-0.097505,-0.0074769,-0.081331,-0.062104,0.034333,0.085298
-0.077668,0.037385,-0.12467,-0.11521,-0.047761,0.016938,0.075837,0.10636
-0.074922,0.055695,-0.068818,-0.093233,0.0038148,0.012055,0.044404,0.093843
0.0032044,-0.075532,-0.0022889,-0.023346,-0.040436,0.0090028,0.052949,0.11551
-0.027619,-0.036164,-0.058442,-0.096284,0.0383,-0.017548,0.029755,0.075532
-0.026703,0.0022889,-0.018158,-0.048371,0.032197,-0.0016785,0.017548,0.022736
-0.009308,-0.064546,0.01236,-0.040436,-0.0022889,0.021515,0.044404,0.030976
0.025177,-0.15152,0.025483,-0.041047,0.0050355,0.038911,0.050202,-0.0019837
0.059968,-0.21164,0.055085,-0.084993,-0.0041199,0.066987,0.038911,-0.011444
0.029145,-0.15244,0.017243,0.0071717,-0.014496,0.052338,0.0038148,-0.07187
0.014191,-0.093843,-0.017853,-0.048981,0.061189,0.025483,0.022126,-0.073396
0.0096132,-0.039521,-0.046845,-0.12467,0.10147,-0.023346,-0.002594,-0.077363
-0.0032044,-0.014801,-0.083467,-0.037079,0.046845,-0.055695,-0.014191,-0.10178
-0.0019837,-0.059968,-0.08072,0.074922,0.055695,-0.061799,-0.017243,-0.070954
-0.084993,0.036469,-0.15183,-0.2623,0.045319,0.011444,-0.054475,-0.07187
-0.13199,0.098421,-0.13993,-0.20218,-0.08896,0.1326,0.017243,0.036774
-0.13565,0.084382,-0.14725,-0.075227,-0.18357,0.12772,0.045014,0.072786
-0.076753,0.044404,-0.13474,-0.070649,-0.024262,-0.0053407,0.02884,0.10239
-0.079194,0.037385,-0.11063,-0.11917,0.031281,-0.031586,-0.00076295,0.10697
-0.084077,0.023957,-0.087434,-0.094453,0.0013733,-0.0038148,-0.072786,0.04715
-0.052949,0.0022889,-0.051118,-0.09659,-0.012665,0.0090028,-0.040742,0.065156
-0.019684,-0.052949,-0.026093,-0.041352,-0.017548,0.019379,0.046235,0.073396
-0.012665,-0.042267,-0.0083925,-0.064851,0.024872,0.005951,0.038911,0.025788
0.011749,-0.067597,0.022126,-0.024567,0.037385,0.0083925,0.045014,-0.0013733
0.041352,-0.12192,0.060578,0.005951,0.024262,0.02121,0.069429,0.012055
0.037079,-0.16373,0.030976,-0.058747,0.083162,-0.0056458,0.03769,-0.030671
0.029145,-0.15793,-0.0086976,-0.032197,0.073396,0.0022889,0.062409,-0.038605
0.053864,-0.16861,0.018769,-0.019684,0.043488,0.019989,-0.0096132,-0.014191
-0.019684,-0.017548,-0.06302,-0.17075,0.080415,-0.014801,-0.22843,-0.024872
-0.04654,-0.055695,-0.039826,-0.075227,0.053559,-0.0041199,-0.067597,-0.046845
-0.010224,-0.094148,-0.13107,-0.044099,-0.077363,0.10056,0.19516,0.011139
-0.072175,0.048066,-0.15732,-0.1735,0.031586,0.011139,0.14878,-0.017548
-0.10605,0.086213,-0.1384,-0.1088,0.024262,-0.017548,0.10636,0.005951
-0.073091,-0.0019837,-0.11765,-0.11795,-0.077974,0.042267,0.070649,0.077974
-0.061799,0.04715,-0.14328,-0.091707,-0.077058,0.012665,-0.18296,0.069429
-0.065766,0.15763,-0.15305,-0.10697,-0.10788,-0.043793,-0.23758,0.059968
-0.052644,0.12711,-0.0795,-0.096895,-0.037385,-0.039826,0.026093,0.087739
-0.034638,0.0083925,-0.033722,-0.08896,0.020905,0.031281,0.048066,0.080415
-0.024872,-0.072175,-0.012665,-0.058137,0.035859,0.10575,0.037995,0.072175
0.013886,-0.15,0.022736,0.012665,0.090791,0.23209,0.1268,0.05417
0.009308,-0.17288,0.042878,-0.046845,0.21256,0.19608,0.085298,-0.0086976
0.0068666,-0.19425,0.056306,-0.026398,0.066072,-0.37949,0.043183,-0.027314
0.032807,-0.11368,-0.0080873,-0.05539,-0.02121,-0.27634,-0.010529,-0.033722
0.042267,-0.069429,-0.026398,-0.042573,0.045014,0.019989,-0.027008,-0.086213
0.042267,-0.11246,-0.024567,-0.044099,0.016938,0.016327,-0.051118,-0.13809
0.011139,-0.066987,-0.034333,-0.12741,0.029145,0.013275,-0.11307,-0.10819
-0.016327,-0.059358,-0.10361,-0.10147,-0.02121,0.047456,-0.079805,-0.054475
-0.014801,-0.021515,-0.080415,-0.044099,-0.051118,0.022431,-0.013581,-0.031891
-0.027008,0.017243,-0.14633,-0.055085,0.011749,-0.013275,0.0016785,-0.020905
-0.02945,0.10361,-0.17502,-0.12192,0.0096132,0.0047303,0.036774,-0.00076295
-0.067597,0.10056,-0.16007,-0.12131,-0.011139,0.017243,0.051118,0.027314
-0.095369,0.050202,-0.11368,-0.14725,-0.035554,0.02121,0.048066,0.061189
-0.11215,0.03006,-0.092317,-0.082246,-0.059052,0.031281,0.047761,0.082551
-0.079194,-0.03769,-0.046235,-0.11246,-0.049592,0.033112,0.047456,0.093843
-0.074617,-0.044404,-0.00015259,-0.11582,-0.040742,0.023346,0.052033,0.14389
-0.077363,-0.034638,0.0019837,-0.031281,0.0074769,0.010224,0.029145,0.12406
-0.014191,-0.081941,0.0071717,0.0090028,0.035248,0.035248,0.085908,0.10208
0.030365,-0.1619,0.022126,-0.026703,0.048981,0.025483,0.082551,0.025177
0.0077821,-0.074922,0.017853,-0.075227,0.078584,0.00015259,0.053254,-0.036469
-0.0022889,-0.049897,-0.011749,-0.13138,0.056306,0.0019837,0.091402,-0.029755
0.020905,-0.10697,0.018463,0.10727,0.017548,0.024872,0.07126,-0.083467
0.00076295,-0.10544,-0.035554,-0.056916,0.060578,0.024872,-0.085603,-0.068818
0.016022,-0.08957,-0.066987,-0.064851,0.093233,0.0050355,-0.11612,-0.028534
-0.027008,0.002594,-0.1146,-0.18418,0.013581,0.026093,-0.12589,-0.0032044
-0.026398,-0.009308,-0.121,-0.15335,-0.016327,-0.014191,-0.12161,-0.019074
-0.053254,0.018463,-0.14694,-0.027008,-0.05478,0.0068666,0.026093,-0.019074
-0.08957,0.11856,-0.16251,-0.081331,-0.01236,0.010224,0.070039,0.00045777
-0.06302,0.057832,-0.11917,-0.25284,-0.015106,0.013886,0.071565,0.067903
-0.034638,0.0013733,-0.084993,-0.078889,-0.094759,0.039216,0.079194,0.062409
-0.061494,0.027314,-0.13993,-0.045624,-0.058747,0.019074,0.029755,0.0013733
-0.056611,-0.028229,-0.033112,-0.069734,0.0383,-0.009308,-0.012665,-0.019684
-0.058747,-0.047761,0.00015259,-0.0972,0.023041,0.014801,0.020294,0.075532
-0.030365,-0.070039,0.009308,-0.040742,-0.026398,0.020905,0.051423,0.10239
-0.0074769,-0.083772,0.018158,-0.065766,-0.0035096,0.015412,0.057221,0.047761
0.019379,-0.10819,0.018463,0.0047303,0.016938,0.019989,0.043488,0.014191
-0.012055,-0.058747,0.024567,-0.043488,0.051118,0.024262,0.047761,0.023957
0.045319,-0.14878,0.013581,0.030671,0.056916,0.016327,0.029755,-0.011444
0.035859,-0.10361,-0.026093,-0.11887,0.069429,-0.023041,-0.014801,-0.050813
0.015412,-0.06424,-0.04654,-0.10239,0.067903,-0.0032044,0.0038148,-0.066987
0.00076295,-0.057832,-0.082551,-0.038911,0.009308,0.018769,0.090791,-0.048371
-0.056611,-0.0086976,-0.13443,-0.093843,0.037995,-0.0090028,0.0065614,-0.060578
-0.061799,0.014191,-0.12497,-0.099947,0.027619,-0.013886,-0.2269,-0.042573
-0.067292,0.020294,-0.13748,-0.12863,-0.018158,0.013886,-0.10147,0.002594
-0.078889,0.0035096,-0.096895,-0.092927,-0.046845,0.037385,0.031586,0.046845
-0.059968,0.0077821,-0.11246,-0.052949,-0.029145,-0.0032044,-0.029145,0.050202
-0.040436,0.026093,-0.12955,-0.12253,-0.0068666,-0.07126,-0.067597,0.059968
-0.061189,0.065156,-0.082551,-0.095064,0.0041199,-0.11429,-0.12619,0.02884
-0.078889,0.037385,-0.041047,-0.074922,-0.010529,0.028534,-0.012055,0.058442
-0.009308,-0.09659,0.0035096,-0.092317,-0.024872,0.044404,0.11002,0.090791
-0.009308,-0.07248,0.010529,-0.065156,-0.0086976,0.026093,0.076448,0.067292
0.0086976,-0.059358,0.022736,-0.066987,-0.016938,0.05417,0.11856,0.058442
0.051118,-0.14878,0.034638,-0.0071717,0.021515,0.040436,0.11063,0.034028
0.052949,-0.15274,0.014191,-0.023041,0.069429,0.027314,-0.034638,-0.030976
0.04715,-0.12253,-0.0096132,-0.014496,0.077668,0.025177,-0.023346,-0.067597
0.022736,-0.056611,-0.021515,-0.098726,0.06424,0.026398,0.05417,-0.095064
-0.035859,-0.045624,-0.063935,-0.051423,0.033722,0.036164,0.030365,-0.096284
-0.054475,-0.00015259,-0.1146,-0.078584,-0.0022889,0.041047,0.043793,-0.022431
-0.069123,0.035859,-0.12436,-0.13321,0.025177,-0.013581,0.013886,-0.0086976
-0.096895,0.015412,-0.13169,-0.10971,0.014801,-0.0013733,0.013275,0.0071717
-0.10605,0.050507,-0.13626,-0.14847,-0.014801,0.023346,0.027314,0.058137
-0.11521,0.08011,-0.15274,-0.10056,-0.052644,0.037079,0.037995,0.060578
-0.087739,0.074006,-0.14145,-0.11032,-0.061494,0.027008,0.02884,0.076448
-0.055085,0.027924,-0.042878,-0.056306,-0.022736,-0.01297,-0.022736,0.091402
-0.026703,-0.018769,-0.068513,-0.040436,-0.01297,-0.025483,-0.025788,0.07248
-0.025788,-0.067597,-0.059358,-0.22385,0.0056458,-0.026093,-0.014496,0.050507
0.031281,-0.1326,0.039521,0.042573,-0.026703,0.0080873,0.017548,0.045319
0.052033,-0.17685,0.072786,0.13901,-0.00015259,0.017243,0.013581,0.041352
0.041352,-0.10666,0.035859,-0.17075,0.16526,-0.019379,-0.042573,-0.022736
0.037385,-0.071565,-0.013581,-0.16129,0.060273,0.030365,-0.016327,-0.070954
0.039521,-0.094759,-0.014496,-0.0050355,-0.0047303,0.013275,-0.013581,-0.10239
0.07187,-0.15885,0.016632,0.041657,0.027008,0.039216,-0.0096132,-0.12192
-0.016327,-0.04593,-0.04654,-0.121,0.077363,0.015412,-0.0074769,-0.11063
-0.029145,-0.032807,-0.063325,-0.045319,0.031281,0.023346,0.03006,-0.047456
-0.017548,-0.01297,-0.12222,-0.069123,-0.016938,0.029145,0.042878,0.0086976
-0.070649,0.03006,-0.13321,-0.13993,0.057832,-0.045319,-0.025483,-0.0074769
-0.08011,0.022736,-0.14267,-0.086824,-0.01236,-0.015412,0.018158,0.05539
-0.10605,0.077668,-0.14237,-0.16617,-0.030976,-0.0056458,0.061494,0.13687
-0.12741,0.11978,-0.12741,-0.084993,-0.052949,-0.0080873,0.072786,0.14054
-0.11032,0.08835,-0.11307,-0.10086,-0.085298,0.019074,0.08835,0.15396
-0.099336,0.048676,-0.11154,-0.12711,0.016632,0.04654,0.099641,0.15305
-0.061494,0.0071717,-0.065156,-0.079805,-0.019074,0.05539,0.043793,0.092927
-0.032807,-0.023651,-0.032807,-0.15976,-0.051423,0.013886,-0.0032044,0.0086976
-0.01236,-0.081636,0.022736,-0.0090028,-0.02121,-0.0056458,-0.065766,-0.057527
0.042267,-0.17746,0.040436,0.069123,0.019074,0.011444,-0.051118,-0.070954
0.026703,-0.14023,0.041657,-0.12528,0.077363,0.028534,-0.018158,-0.075227
0.066072,-0.18845,0.056001,-0.0083925,0.056306,-0.00015259,-0.036469,-0.11856
0.088655,-0.19181,0.024872,-0.017548,0.039826,-0.009308,-0.049287,-0.069429
0.072175,-0.1735,0.005951,-0.041657,0.11185,-0.025483,-0.013581,-0.048676
0.063935,-0.10483,-0.052338,0.041657,0.03769,0.021515,0.084688,-0.043793
-0.0068666,0.015717,-0.11337,-0.10361,0.046845,0.020905,0.085603,-0.044404
-0.020905,0.0019837,-0.11429,-0.13931,0.016632,0.015106,0.081941,-0.033722
-0.068818,0.060578,-0.17716,-0.2089,-0.033417,0.005951,0.12436,-0.0022889
-0.13657,0.12772,-0.14755,-0.1738,0.027314,-0.041657,-0.10361,-0.0062562
-0.10452,0.048066,-0.10147,-0.024567,-0.099641,0.010834,-0.47318,0.078279
-0.1387,0.086213,-0.1088,-0.14694,-0.014191,-0.027314,-0.14847,0.10605
-0.10208,0.035248,-0.10452,-0.066377,0.036164,-0.03006,0.12589,0.095979
-0.091402,-0.00045777,-0.068513,-0.041657,-0.018769,0.0010681,0.091402,0.10422
-0.073091,-0.0083925,-0.044099,-0.13199,0.02182,-0.011444,0.08011,0.085908
-0.059663,-0.0083925,-0.0096132,-0.091096,-0.043183,0.067597,0.10483,0.10391
-0.014496,-0.0795,0.0086976,-0.033417,-0.058442,0.083772,0.11521,0.11032
0.0047303,-0.12039,-0.020294,-0.027314,-0.018158,0.058442,0.11917,0.05417
0.018158,-0.11978,0.023651,-0.10483,-0.032197,0.075532,0.11917,-0.034333
0.049897,-0.18631,0.030671,-0.11185,0.035554,0.041047,0.15244,-0.021515
0.058442,-0.15946,0.011444,0.30411,0.10361,-0.019684,0.078279,-0.066682
0.034943,-0.073396,-0.048676,-0.21897,0.1088,-0.056306,-0.12192,-0.11826
0.015412,-0.042573,-0.060883,-0.082551,0.065461,-0.034943,-0.32944,-0.11856
0.02945,-0.067597,-0.082856,-0.14298,0.002594,0.026703,-0.15274,-0.093538
-0.023346,-0.016022,-0.10605,0.0050355,-0.06363,0.10056,-0.035554,-0.10758
-0.041047,0.089265,-0.14755,-0.12741,-0.079194,0.07126,-0.00015259,-0.034943
-0.062104,0.053559,-0.13382,-0.16098,0.039521,-0.059663,0.019989,0.026703
-0.0795,0.072175,-0.1384,-0.068208,-0.023041,-0.02182,0.04654,0.062409
-0.089876,0.12314,-0.14054,-0.11063,-0.0090028,-0.010224,0.076143,0.08835
-0.067597,0.040742,-0.097505,-0.050813,0.0074769,-0.015717,0.083467,0.090181
-0.033722,-0.025788,-0.046845,-0.026398,-0.009308,-0.040436,0.085908,0.094759
-0.064546,-0.014191,-0.031891,-0.092927,0.0206,-0.093538,0.066072,0.061799
-0.057221,-0.062715,0.011749,-0.12314,-0.057527,0.023041,0.035248,0.055695
-0.02884,-0.11276,0.04593,-0.13291,-0.062715,0.14176,0.053864,0.091402
0.023957,-0.19608,0.058747,-0.034333,-0.018463,0.27176,0.14054,0.084688
0.031891,-0.17288,0.016327,-0.002594,-0.0044251,0.38315,0.048066,0.015412
0.043793,-0.11276,-0.012055,-0.053254,0.22171,-0.20737,-0.27817,-0.029145
0.058137,-0.085908,-0.019684,-0.035554,0.30137,-0.54856,-0.17288,-0.064851
0.030365,-0.054475,-0.044709,-0.009308,0.0028992,0.02884,0.11978,-0.073396
-0.0096132,-0.023957,-0.084077,-0.090791,-0.015717,0.03006,0.065156,-0.086824
-0.027314,-0.027619,-0.10422,-0.059663,0.013581,0.016022,0.070649,-0.055695
-0.042573,-0.02884,-0.08835,0.005951,0.0013733,0.022736,0.0038148,-0.050813
-0.085603,0.042573,-0.15732,-0.14572,0.014191,-0.016938,-0.047761,0.025177
-0.12589,0.11337,-0.16068,-0.22293,0.0019837,-0.020294,-0.046845,0.054475
-0.12436,0.095369,-0.11765,-0.14481,-0.075532,-0.020294,-0.034638,0.086213
-0.075837,0.040131,-0.12833,-0.11398,-0.10361,-0.022736,-0.0022889,0.13657
-0.10208,0.049897,-0.094759,-0.11307,-0.04715,0.028229,0.022736,0.07126
-0.059052,-0.011444,-0.046235,-0.06424,-0.052644,0.051423,0.059052,0.06302
-0.0053407,-0.036774,-0.03769,-0.047456,-0.033722,0.048676,0.075837,0.031281
0.025483,-0.062409,0.018158,-0.0086976,0.0013733,0.014801,0.068513,-0.02121
0.036774,-0.11795,0.020905,-0.015412,0.04715,-0.0013733,0.03769,-0.034943
0.057221,-0.12192,0.023346,-0.050507,0.06363,0.013275,-0.073396,-0.052644
0.045624,-0.20005,0.080415,-0.037079,0.054475,0.023041,-0.066987,-0.061799
0.036164,-0.19944,0.00015259,-0.022736,0.046845,0.028534,-0.018769,-0.031586
-0.0022889,-0.10636,-0.023957,-0.046235,0.041352,0.049592,0.04593,0.050507
0.011749,-0.061494,-0.050813,-0.027314,0.038911,0.05417,0.084688,0.040436
-0.0010681,-0.030976,-0.08072,-0.057527,0.045319,0.031281,0.065766,-0.025177
-0.041047,0.0099184,-0.12528,-0.14206,0.013275,0.0022889,0.051118,-0.071565
-0.074617,0.061189,-0.14267,-0.168,0.00076295,-0.025483,0.056001,-0.066072
-0.089876,0.073091,-0.13565,-0.10513,0.0056458,0.0013733,-0.058137,-0.0062562
-0.08072,0.051728,-0.13687,-0.056916,-0.032197,0.018158,-0.082246,0.048066
-0.08072,0.041657,-0.12711,-0.039216,-0.023041,-0.018769,-0.11429,0.037385
-0.068818,0.075837,-0.11368,-0.26444,-0.002594,-0.035248,-0.092927,0.021515
-0.072786,0.0206,-0.084688,-0.073701,-0.061189,0.023041,0.015106,0.041047
-0.020294,-0.07187,-0.024567,-0.10117,-0.08072,0.033112,0.060578,0.073396
-0.0096132,-0.048676,-0.0065614,-0.045624,-0.0047303,0.0044251,0.023651,0.059968
0.0047303,-0.076143,0.024872,-0.027619,-0.0071717,0.0044251,0.014191,0.043183
0.017243,-0.098116,0.044709,-0.012665,0.041962,0.0062562,0.061494,0.027008
0.034333,-0.13138,0.022736,-0.11673,0.046845,0.066682,0.1091,0.031586
0.041047,-0.14664,0.019989,-0.034333,0.0090028,0.049592,0.087739,0.0032044
0.018769,-0.070344,-0.017853,-0.03769,0.010529,0.019989,0.076753,-0.051423
0.041047,-0.14694,0.012055,0.16983,0.049897,-0.010224,0.022126,-0.087434
0.050507,-0.065461,-0.11215,-0.089265,0.10758,-0.043488,-0.17319,-0.078279
-0.031586,0.047456,-0.1091,-0.29435,0.15305,-0.048371,-0.24277,-0.12009
-0.063935,-0.0206,-0.11765,-0.052949,-0.069429,0.058442,-0.014496,-0.065461
-0.099641,0.048676,-0.15396,-0.13169,-0.08896,0.062104,0.11032,0.031586
-0.10178,0.043183,-0.12222,-0.090791,0.0071717,-0.021515,0.02182,0.035248
-0.099641,0.055695,-0.14145,-0.020905,-0.034943,-0.014801,-0.0028992,0.051423
-0.096895,0.015412,-0.090181,-0.14847,-0.002594,-0.029755,0.032807,0.087739
-0.11063,0.077974,-0.11917,-0.12955,0.0068666,-0.010224,0.031586,0.11246
-0.11551,0.093843,-0.056916,-0.099336,-0.030671,0.026093,0.052033,0.14023
-0.043183,0.02182,-0.026398,-0.083162,-0.039521,0.053559,0.069429,0.16709
0.0080873,-0.063935,0.00045777,-0.048676,-0.014496,0.062104,0.067292,0.11612
0.033722,-0.11398,0.026398,-0.036774,-0.002594,0.061494,0.058137,0.049592
0.03769,-0.16373,-0.014191,-0.047761,0.019684,0.022736,0.049287,-0.012055
0.0383,-0.20584,0.043793,-0.030976,0.051728,-0.010224,0.005951,-0.039521
0.055695,-0.25986,0.044099,0.010529,0.067597,-0.017853,-0.0022889,-0.030365
0.024262,-0.15396,0.0013733,-0.090486,0.092012,-0.0086976,-0.0022889,-0.055695
0.019684,-0.052338,-0.035554,0.018463,0.041657,0.027924,0.043793,-0.049897
-0.041047,-0.00045777,-0.070039,-0.051423,0.04593,0.0041199,0.026093,-0.071565
-0.058137,0.043183,-0.11826,-0.1561,0.034028,-0.019989,-0.023651,-0.066987
-0.059663,0.0206,-0.12497,-0.10239,-0.041352,0.013275,-0.009308,-0.02945
-0.067597,0.059663,-0.15793,-0.17288,0.039826,0.00045777,-0.040436,-0.0053407
-0.085298,0.047761,-0.11887,-0.13504,0.045319,0.005951,-0.052033,0.021515
-0.060578,0.029145,-0.14298,-0.25132,-0.050813,-0.0050355,-0.10056,0.015412
-0.025177,-0.013581,-0.095979,0.33097,-0.042878,-0.037385,-0.11368,0.0041199
-0.075532,0.075532,-0.10361,-0.25132,0.0206,-0.06424,-0.097505,-0.0053407
-0.10758,0.05539,-0.051118,-0.17502,-0.041962,-0.0086976,0.022736,0.050202
-0.071565,0.0022889,-0.026398,-0.039521,-0.17441,0.094759,0.13046,0.10849
-0.0028992,-0.13382,0.034638,0.023651,-0.010529,0.05478,0.092012,0.051728
-0.00045777,-0.08011,0.002594,-0.082856,0.093843,0.042267,0.071565,0.0050355
0.04715,-0.098116,0.0022889,-0.0383,0.063325,0.0071717,0.024872,-0.031281
0.08072,-0.11215,0.0035096,-0.081331,0.00045777,0.0077821,0.041962,-0.0074769
0.052033,-0.077668,0.0086976,-0.057527,0.042267,0.0086976,-0.0032044,-0.054475
0.050202,-0.098116,0.0056458,-0.016022,0.043793,-0.0038148,-0.009308,-0.058137
-0.00045777,-0.11246,-0.026703,-0.057221,0.047761,-0.00015259,0.0013733,-0.042878
-0.019074,-0.10666,-0.077058,-0.03006,0.034333,0.0050355,-0.0035096,-0.040436
-0.039216,-0.078889,-0.096284,-0.11765,0.017243,-0.00015259,0.002594,-0.034943
-0.054475,0.0038148,-0.13657,-0.099031,0.020905,0.0068666,0.0038148,-0.033112
-0.081331,0.04715,-0.1445,-0.10849,-0.0050355,0.00015259,0.010529,0.027619
-0.092927,0.084382,-0.18875,-0.08072,-0.0090028,-0.0019837,0.0019837,0.053254
-0.10056,0.095369,-0.11368,-0.13382,-0.032502,0.0071717,0.02884,0.10269
-0.089265,-0.021515,-0.082246,-0.11063,-0.024567,-0.010834,0.036164,0.10666
-0.094453,0.015717,-0.080415,-0.08072,-0.050507,0.010224,0.026703,0.094759
-0.038911,-0.0028992,-0.0206,0.018769,-0.050507,0.026398,0.053864,0.10666
0.0074769,-0.020294,-0.041962,-0.14389,0.02182,0.03006,0.086213,0.08011
-0.031891,-0.03769,0.010529,-0.089876,0.035248,0.046235,0.040131,0.0206
0.031891,-0.09659,0.02945,0.067597,-0.025483,0.042878,-0.033417,0.020905
0.073396,-0.12192,0.012055,-0.15518,0.031281,0.027008,0.042267,-0.0062562
0.015717,-0.096895,0.02182,-0.016327,0.045014,0.014496,0.047761,-0.09781
0.033722,-0.12558,-0.011444,-0.06424,0.030365,-0.0096132,0.015412,-0.089265
0.034333,-0.098726,-0.0074769,-0.065156,0.078279,-0.0068666,0.02121,-0.082856
0.00045777,-0.060273,-0.024262,-0.019684,-0.0013733,0.051118,-0.20035,-0.045319
-0.016938,-0.072786,-0.084382,0.061494,0.023346,-0.019684,-0.18936,-0.045014
-0.011139,-0.033722,-0.16007,-0.21286,0.079805,-0.11398,0.023346,-0.040436
-0.0795,0.036164,-0.12528,-0.18326,0.038911,-0.03006,0.057832,-0.0062562
-0.067292,0.0065614,-0.16648,-0.061799,-0.086213,0.070954,0.068208,0.051728
-0.097505,0.041657,-0.14298,-0.16129,-0.015106,-0.022736,-0.011139,0.073396
-0.096895,0.050202,-0.10605,-0.085298,-0.050507,-0.019684,-0.086824,0.011444
-0.081025,0.061799,-0.12222,-0.1619,-0.090181,0.010834,-0.015106,0.094759
-0.065766,0.064546,-0.058442,-0.041352,-0.0086976,-0.017853,0.033722,0.090791
-0.028229,0.00045777,-0.0074769,-0.033112,-0.0062562,0.029145,0.06302,0.068208
-0.015412,-0.070039,-0.0022889,-0.012665,0.051728,-0.0090028,0.045014,0.024872
-0.0010681,-0.12345,0.047456,0.011139,0.039826,0.022736,0.059968,0.012055
0.026093,-0.15061,0.054475,-0.15518,-0.021515,0.089265,0.098726,0.02182
0.0099184,-0.08835,0.002594,-0.077668,0.065461,0.0041199,0.027924,-0.044404
0.0050355,-0.063935,-0.022431,-0.067597,0.088655,0.00015259,0.040131,-0.042878
0.015412,-0.10819,-0.026703,-0.0083925,0.037385,0.0099184,0.060273,-0.010529
0.025177,-0.12436,-0.016938,-0.0096132,0.047456,-0.055695,0.017243,-0.068208
0.0068666,-0.056001,-0.068818,-0.103,0.075837,-0.073701,-0.0065614,-0.08835
-0.019684,-0.010224,-0.094148,-0.080415,-0.047761,0.074311,0.029755,-0.021515
-0.029755,-0.034638,-0.097505,-0.0090028,-0.11246,0.14267,0.092012,0.026093
-0.052033,0.031586,-0.15061,-0.15915,0.017548,-0.00015259,0.0383,-0.0013733
-0.12039,0.10208,-0.17319,-0.16983,0.064546,-0.054475,-0.075532,-0.015106
-0.12161,0.089265,-0.14481,-0.10513,-0.041047,-0.069123,-0.30167,0.025483
-0.063325,0.022126,-0.08896,-0.075532,-0.056611,-0.07187,-0.27268,0.058137
-0.05478,0.016327,-0.091096,-0.025483,-0.01297,0.011444,0.058442,0.073396
-0.03769,-0.017853,-0.051728,-0.10086,0.024262,0.08896,0.1088,0.08835
-0.011139,-0.039521,-0.038911,-0.0972,-0.0028992,0.26596,0.089876,0.09659
-0.020294,-0.052033,0.013581,-0.092317,-0.045624,0.33829,0.090791,0.064546
0.018158,-0.11887,0.035554,-0.045624,0.039216,-0.31388,0.052949,0.051728
0.029145,-0.11948,0.022126,-0.033722,0.041352,-0.33494,0.059052,-0.011139
0.037995,-0.13687,0.023957,-0.050813,0.056916,0.034638,0.011139,-0.062104
0.013886,-0.12253,0.014191,-0.034943,0.030365,0.030671,-0.0010681,-0.041352
0.030976,-0.11154,-0.0041199,-0.024872,0.030976,0.034333,-0.033417,-0.02121
0.0065614,-0.090791,-0.030976,0.03006,0.057221,0.016022,-0.077668,-0.051728
-0.04715,-0.016938,-0.081331,-0.099031,0.024262,0.0068666,-0.077974,-0.050813
-0.067597,0.026398,-0.14084,-0.13077,-0.016632,0.032502,0.011139,-0.035554
-0.079194,0.070344,-0.17868,-0.11398,-0.051728,0.063325,0.085908,-0.028229
-0.10361,0.083162,-0.13352,-0.13504,-0.002594,0.02884,0.079805,-0.010834
-0.099641,0.092012,-0.11917,-0.17929,0.030365,-0.032807,0.041657,-0.010529
-0.035859,-0.032197,-0.10117,-0.11246,0.13718,-0.045624,0.043793,0.034028
-0.063325,-0.0022889,-0.10361,-0.099031,0.089265,-0.039826,-0.019074,0.026093
-0.068818,-0.016022,-0.075227,-0.12192,-0.077974,0.011444,-0.050813,0.044099
-0.022431,-0.11185,-0.020905,-0.023041,-0.12589,0.035554,0.055085,0.12772
-0.026703,-0.090791,-0.048981,-0.12985,-0.059968,0.040436,0.066377,0.12589
-0.0028992,-0.039521,0.016632,-0.061189,-0.074922,0.043183,0.056306,0.074311
0.02182,-0.092622,0.036469,0.023651,-0.092317,0.04715,0.048371,0.058442
0.011139,-0.10086,0.018463,-0.039216,0.082246,0.00045777,0.0028992,0.0206
0.028229,-0.12589,0.032197,-0.014191,0.094453,0.026093,0.017548,-0.0071717
0.047761,-0.098116,-0.013581,-0.084382,0.045319,0.088655,0.027924,-0.039826
0.041657,-0.058137,-0.039216,-0.034638,0.049592,0.041352,-0.031281,-0.081636
0.016022,-0.048371,-0.056611,-0.026093,0.034028,0.011139,-0.068208,-0.083467
-0.00045777,-0.042573,-0.097505,-0.093843,0.081331,-0.010834,-0.035248,-0.085908
-0.099947,0.038605,-0.13138,-0.16922,0.071565,-0.041047,0.033417,-0.052949
-0.075532,-0.00015259,-0.10605,-0.028229,-0.025788,0.0050355,0.10147,0.038911
-0.075227,0.022431,-0.11276,-0.081636,-0.032502,-0.00076295,0.022126,0.071565
-0.095979,0.08957,-0.16556,-0.18753,0.0090028,-0.024262,0.032807,0.041657
-0.08011,0.083162,-0.1146,-0.12985,-0.052033,0.002594,0.15702,0.076448
-0.081025,0.041657,-0.13474,-0.055695,-0.070954,0.02121,0.056611,0.089265
-0.059968,-0.0086976,-0.057221,-0.078584,-0.014191,-0.014191,0.016632,0.08835
-0.074006,-0.010529,-0.022126,-0.099336,0.010834,-0.027924,0.059052,0.027924
-0.0044251,-0.06363,-0.028229,-0.049592,-0.035248,0.017243,-0.002594,0.0096132
-0.016632,-0.081331,0.036469,0.0077821,-0.0050355,0.010834,-0.19059,-0.024567
0.043183,-0.15152,0.031891,-0.060883,0.058442,0.025483,-0.077058,-0.036774
0.024872,-0.09659,0.0035096,-0.16403,0.044099,0.026093,0.042878,-0.049592
0.0383,-0.12894,0.020905,0.0013733,0.0041199,0.02121,-0.18906,-0.071565
0.07126,-0.168,0.0038148,0.039521,-0.00045777,0.036774,-0.066682,-0.041352
0.037385,-0.10025,-0.045014,-0.10361,0.059968,-0.017548,0.05539,-0.07126
0.00045777,-0.1146,-0.038911,-0.069123,0.095674,-0.023957,-0.013275,-0.075532
-0.024262,-0.074006,-0.098726,-0.058442,0.055085,0.010224,-0.011139,-0.020905
-0.042878,0.01236,-0.17472,-0.13962,0.027619,0.0013733,0.02182,0.002594
-0.059358,0.075837,-0.15396,-0.082856,-0.038605,0.022736,0.022736,0.042878
-0.081941,0.10147,-0.13077,-0.093233,-0.024567,-0.019989,-0.018769,0.035859
-0.089876,0.11002,-0.12497,-0.1619,0.0013733,-0.037385,-0.0047303,0.072786
-0.081331,0.045624,-0.095979,-0.1561,-0.031586,-0.0086976,0.025177,0.082246
-0.068818,0.037079,-0.10941,-0.04715,-0.063935,0.0086976,0.066072,0.075532
-0.076143,0.056001,-0.066072,-0.12741,-0.024872,0.012665,0.076448,0.090486
-0.049287,-0.013886,-0.0065614,-0.047456,-0.022126,0.049592,0.084077,0.075837
-0.00015259,-0.13352,0.03006,-0.067292,-0.020294,0.068513,0.1088,0.051118
0.023651,-0.11551,0.019989,-0.052949,0.026093,0.037385,0.074617,0.00045777
0.023651,-0.10758,0.0383,-0.0206,0.019989,0.033112,0.021515,-0.025788
0.02884,-0.16068,0.067597,-0.018158,0.045014,0.018463,-0.043183,-0.030976
0.025483,-0.22232,-0.012665,-0.059052,0.077974,-0.0013733,-0.074006,-0.053559
-0.00076295,-0.13596,-0.055695,-0.056306,0.050507,-0.023346,-0.057527,-0.052949
-0.04715,-0.034638,-0.034638,-0.04654,0.035248,-0.065766,-0.0062562,-0.0022889
-0.0383,-0.0019837,-0.082856,-0.04715,0.024872,0.037079,0.077974,0.0074769
-0.04593,0.009308,-0.10697,-0.080415,0.039826,0.030976,0.069429,0.011139
-0.074617,0.043183,-0.15457,-0.10239,0.026703,0.0099184,0.081331,0.041352
-0.048676,0.051118,-0.15152,-0.016022,-0.0062562,0.0032044,0.093843,0.073701
-0.053559,0.095369,-0.16892,-0.1799,0.012665,-0.033417,0.019684,0.040436
-0.083772,0.055695,-0.12741,-0.052644,-0.010224,-0.034333,-0.22019,-0.0010681
-0.076143,0.035554,-0.092622,-0.16861,-0.099336,-0.0086976,-0.16007,0.027924
-0.069429,0.051728,-0.077974,-0.14542,-0.060578,-0.025788,0.05417,0.023346
-0.037385,-0.0035096,-0.022431,-0.089876,-0.041962,0.022126,0.047456,0.016022
-0.0083925,-0.051423,-0.028229,-0.11948,0.03006,0.041657,0.0032044,-0.0010681
0.030976,-0.10941,0.024872,0.065461,0.010834,0.0071717,-0.0047303,0.0032044
0.018769,-0.1268,0.037385,-0.082856,-0.00015259,-0.020905,0.011749,-0.0062562
0.01297,-0.14298,0.029755,-0.15396,0.057832,0.025483,0.047456,0.0077821
0.048981,-0.17594,0.044099,0.016938,-0.0032044,0.064546,0.069734,-0.0041199
0.010529,-0.090181,-0.0068666,-0.031281,0.064546,0.018158,0.048981,-0.045624
-0.0044251,-0.058442,-0.019684,-0.14054,0.075532,0.033417,0.090181,-0.052949
0.016632,-0.078279,-0.067903,-0.091096,-0.015717,0.095674,0.13596,-0.025788
0.016938,-0.040131,-0.08957,0.27939,0.025483,0.015412,0.083772,-0.029145
-0.070649,0.055695,-0.13993,-0.2974,0.081941,-0.069734,0.051728,-0.076143
-0.095674,0.044099,-0.14542,-0.072786,-0.014801,0.0053407,-0.040436,-0.037079
-0.067292,0.033112,-0.15274,-0.17472,-0.0028992,0.041047,-0.27146,0.084077
-0.095674,0.068513,-0.12955,-0.20584,0.012665,-0.045624,-0.19883,0.041657
-0.089265,0.048066,-0.11917,-0.060883,-0.11795,-0.020294,-0.050813,0.046235
-0.11154,0.051728,-0.11276,-0.081636,-0.057527,-0.033417,-0.046845,0.08835
-0.086824,0.015412,-0.06424,-0.094453,-0.0086976,-0.031281,0.045014,0.063935
-0.059358,-0.081331,-0.018158,-0.052949,-0.02945,-0.0016785,0.027008,0.040436
-0.031891,-0.075532,0.002594,-0.05539,-0.016327,0.025483,0.0096132,0.053864
0.027008,-0.093538,0.017243,-0.059052,0.011444,0.031586,0.090791,0.055695
0.051423,-0.11215,0.022431,-0.032502,0.013275,0.037385,0.10147,0.014801
0.064546,-0.12009,0.019684,-0.0090028,0.02884,0.033417,0.051423,-0.069123
0.054475,-0.13352,0.0065614,-0.0062562,0.070039,0.0028992,-0.0206,-0.12161
0.045624,-0.10452,-0.0035096,-0.041047,0.09781,-0.0013733,-0.031891,-0.11429
0.0032044,-0.11643,-0.0038148,-0.0795,0.066377,0.014191,0.029755,-0.076143
-0.041047,-0.050202,-0.061189,-0.080415,0.026703,0.031281,0.063325,-0.025483
-0.0206,-0.011749,-0.12131,-0.094453,0.017243,0.012665,0.04715,0.034943
-0.028534,0.022126,-0.12985,-0.049592,0.014801,-0.02121,0.022736,0.011139
-0.087739,0.10636,-0.15183,-0.11521,0.014801,-0.027619,-0.017243,-0.012665
-0.0972,0.053559,-0.14694,-0.18357,-0.016938,-0.019074,-0.023041,0.034943
-0.084993,0.073701,-0.14633,-0.078584,-0.062104,0.0041199,0.0056458,0.10056
-0.099031,0.081331,-0.1265,-0.10788,-0.010529,-0.012665,0.0019837,0.058137
-0.060883,-0.019684,-0.058747,-0.13199,0.0016785,0.0071717,0.017548,0.0795
-0.016938,-0.090486,-0.03006,-0.065156,-0.039521,0.028229,0.041047,0.0795
-0.0053407,-0.10666,-0.014191,-0.05417,-0.0068666,-0.0019837,0.016022,0.057832
0.0065614,-0.11337,0.023957,-0.030976,0.022126,0.026398,0.013886,0.058137
0.017548,-0.099947,-0.0016785,-0.103,0.07187,0.021515,0.023957,0.043793
0.025788,-0.056306,0.0056458,0.041352,0.0206,0.040131,0.073396,0.031586
0.050507,-0.12833,0.022431,-0.095369,0.0028992,0.01297,0.043183,-0.025483
0.059052,-0.11551,0.023957,-0.12741,0.0795,-0.056306,0.011139,-0.039216
0.023957,-0.12345,-0.005951,-0.040742,0.072175,-0.0047303,-0.0065614,-0.093233
0.024872,-0.096895,-0.042267,-0.015106,-0.067292,0.1622,0.035554,-0.027314
-0.00045777,-0.033722,-0.085298,-0.092927,-0.039521,0.11704,0.078279,0.016632
-0.06302,0.028534,-0.13565,-0.08896,0.032197,0.033112,0.06424,-0.05478
-0.10117,0.059968,-0.14298,-0.095369,0.027008,-0.025177,0.048066,-0.031281
-0.12467,0.079805,-0.11704,-0.14786,0.010834,-0.066072,-0.010834,0.025483
-0.095979,0.0038148,-0.11063,-0.045319,-0.010529,-0.10056,-0.28611,0.06363
-0.10636,0.061494,-0.14084,-0.10544,-0.0013733,-0.039826,-0.25284,0.041962
-0.12375,0.085603,-0.12558,-0.12039,0.002594,0.066987,0.05417,0.0035096
-0.10788,0.11063,-0.091402,-0.0083925,-0.077668,0.21408,0.11765,0.048371
-0.10819,0.0053407,-0.0099184,-0.080415,-0.15244,0.40757,0.13718,0.11582
-0.022431,-0.084382,-0.015717,-0.099031,-0.049592,0.042878,0.026703,0.11002
0.015717,-0.084993,0.0019837,-0.13352,0.053864,-0.54917,-0.050507,0.048371
-0.011139,-0.11826,0.044709,-0.12345,0.055085,-0.13169,-0.060578,-0.042573
0.016022,-0.11948,0.0044251,0.0035096,0.0068666,0.059358,-0.010224,-0.026703
0.039826,-0.12497,-0.00076295,0.00076295,0.21256,-0.035859,0.071565,-0.022431
0.052949,-0.12039,-0.0065614,-0.027314,0.16068,0.03006,0.099641,-0.017243
0.07187,-0.12406,-0.0074769,-0.086519,-0.0065614,0.05539,0.10422,-0.023346
0.024262,-0.08957,-0.053254,0.0050355,-0.01297,0.020905,0.14542,-0.052644
-0.0083925,-0.019989,-0.094453,-0.11582,0.013275,0.015412,0.045014,-0.066072
-0.018158,-0.055695,-0.099641,-0.081025,0.023651,0.02945,-0.049287,-0.0068666
-0.037079,0.0038148,-0.16251,-0.13382,0.019989,0.0050355,-0.057832,-0.0010681
-0.05478,0.033417,-0.17014,-0.075227,0.0010681,-0.0090028,-0.0795,0.0056458
-0.081025,0.11521,-0.13748,-0.16526,-0.0383,0.0086976,-0.018158,0.051728
-0.08835,0.098116,-0.08835,-0.050507,-0.063325,-0.030976,0.017853,0.067903
-0.08957,0.027314,-0.038605,-0.046845,-0.042573,-0.025483,0.011444,0.041047
-0.053254,-0.039826,-0.060273,-0.15122,-0.01236,0.024872,0.026093,0.031586
-0.044404,-0.070039,-0.041962,-0.11673,-0.023346,0.032807,0.02884,0.02121
-0.00076295,-0.075837,0.014191,0.0080873,-0.060578,0.072786,0.036164,0.0099184
0.04654,-0.1088,0.00076295,-0.02945,-0.0047303,0.039521,0.031891,0.013275
0.053559,-0.15152,0.017853,-0.00045777,0.057527,0.0053407,0.0090028,-0.025788
0.037995,-0.1268,0.030671,-0.12375,0.063325,0.012665,0.012055,-0.038605
0.0099184,-0.092622,0.031891,-0.046845,0.057832,0.0206,0.0065614,-0.049287
0.018769,-0.075532,-0.016022,-0.034333,0.03769,0.018463,0.0071717,-0.035554
0.0090028,-0.058747,-0.042878,0.0050355,0.051728,-0.0077821,-0.0010681,-0.0050355
-0.033417,-0.025483,-0.084077,-0.072786,0.075227,-0.0074769,-0.0086976,-0.01236
-0.030976,-0.018158,-0.11307,-0.14939,0.07187,0.026093,0.015106,0.015717
-0.059663,0.048371,-0.12558,-0.12589,-0.0028992,0.0099184,-0.010834,0.014801
-0.089265,0.092012,-0.15,-0.12436,-0.025788,-0.0053407,0.0099184,0.019684
-0.087129,0.049592,-0.15335,-0.10391,-0.033112,0.0090028,0.033417,0.041657
-0.051118,-0.018463,-0.12253,-0.082856,-0.064851,0.030976,0.043488,0.057832
-0.099031,0.058442,-0.11551,-0.082856,-0.023041,0.0071717,0.019989,0.034943
-0.077058,0.033417,-0.10361,-0.06363,-0.0086976,-0.020905,-0.037079,0.035554
-0.062104,-0.030365,-0.0035096,-0.15671,0.011444,-0.027924,0.076143,0.077668
-0.052949,-0.086519,-0.0041199,-0.019684,-0.019379,0.0065614,0.15518,0.014191
