-0.024567,0.11612,-0.12894,-0.121,-0.08835,0.023957,0.013275,0.056611
-0.073396,-0.12467,-0.045014,-0.032197,-0.089265,0.034943,-0.05539,0.098116
-0.068208,-0.052338,0.0038148,-0.046845,-0.026398,0.050813,0.076143,0.026703
-0.046845,0.0077821,-0.022736,-0.065461,0.027619,0.024567,0.20951,-0.012055
0.097505,-0.12619,-0.0053407,-0.057527,0.040436,0.0068666,0.11276,0.02884
0.090181,-0.036774,-0.0206,-0.081331,0.055695,-0.011444,-0.0035096,-0.00045777
0.059358,-0.12161,-0.034943,-0.0795,0.020905,-0.015717,-0.23728,-0.016938
-0.011139,-0.24216,-0.011444,-0.043488,-0.0068666,0.051118,0.016632,0.042878
0.0035096,-0.48966,0.065766,-0.025177,-0.010834,0.11582,0.54002,-0.024262
-0.0010681,-0.078279,-0.035554,-0.046845,0.02182,0.042878,0.36454,-0.069123
0.005951,0.23209,-0.058137,0.012665,0.030365,0.014801,-0.06363,-0.056001
-0.023346,0.089265,-0.094453,-0.10513,0.067903,-0.094148,-1.0005,-0.12345
-0.018463,0.013886,-0.032502,-0.10147,0.093843,-0.13504,-0.98802,-0.058747
-0.045624,0.20188,-0.23636,-0.10178,0.016632,0.026398,0.40574,0.092317
-0.15152,0.094759,-0.15579,-0.10636,0.009308,0.018463,0.28275,0.063935
-0.084382,-0.10605,-0.13504,-0.10697,-0.027008,0.018463,0.081636,0.081331
-0.041657,-0.10483,-0.10636,-0.13565,-0.07126,0.032502,0.1323,0.075227
-0.03769,-0.0013733,-0.024262,-0.059663,-0.045014,-0.010834,0.050202,0.015717
-0.066682,0.024262,-0.048371,-0.15702,-0.0080873,-0.039216,0.069734,0.035248
-0.0065614,0.016327,-0.060578,-0.099336,-0.016327,0.0022889,0.050507,0.081941
-0.051423,-0.093843,0.0019837,-0.066377,-0.031281,0.061189,0.062409,0.058442
-0.0019837,-0.11398,0.0096132,-0.054475,-0.010529,0.070954,0.08835,0.037995
-0.011444,0.042267,0.00076295,-0.032502,0.0041199,0.06424,0.061189,0.051423
0.0032044,-0.11032,0.079194,0.086824,0.031586,0.06302,-0.013581,-0.017243
-0.084382,-0.08957,-0.03769,-0.020294,0.086824,0.027314,0.095369,-0.094453
-0.15274,-0.17288,-0.029755,-0.020905,0.067292,0.024872,0.20493,-0.064546
-0.031281,-0.19272,-0.088655,-0.013275,0.07187,0.050813,0.089265,0.024872
0.15305,-0.16251,-0.1033,-0.18143,0.073091,-0.068208,-0.11032,0.030976
0.098116,0.1265,-0.17502,-0.25223,0.02121,-0.10666,-0.48081,-0.057221
0.041962,0.063325,-0.10269,-0.052644,-0.037079,0.060273,0.012665,-0.0071717
-0.07126,0.14115,-0.081331,-0.046235,-0.055085,0.062715,0.24338,0.045319
-0.10025,0.045624,-0.073091,-0.040436,0.025177,-0.018158,0.1149,0.045319
-0.12253,0.081331,-0.12741,-0.25223,0.03006,-0.035554,0.03769,0.026703
-0.14054,0.039216,-0.092927,-0.34134,-0.065461,0.011444,-0.0032044,0.05539
-0.074617,0.024262,0.06424,0.03769,-0.081331,0.049592,0.055695,0.098116
-0.12467,-0.014191,-0.08957,0.062715,0.0068666,0.024262,0.053559,0.059663
-0.048676,-0.062104,-0.059052,-0.040436,0.018769,0.010529,0.034028,0.056306
0.053864,-0.28214,-0.0080873,-0.047761,0.011749,-0.011749,0.0019837,0.043793
0.065766,-0.25437,0.044404,-0.025177,0.036164,-0.043488,-0.018769,-0.064546
0.041657,-0.17807,0.011749,0.037385,0.030365,-0.02121,-0.079805,-0.070954
0.11917,-0.010529,-0.025483,-0.041657,0.048981,0.034638,-0.0206,-0.04593
0.042267,0.051728,-0.043793,-0.10147,0.052338,0.018769,-0.0083925,-0.065766
-0.055695,0.11337,-0.058747,-0.13748,0.030365,0.00076295,-0.058137,-0.072175
-0.037385,0.0041199,-0.077363,-0.0383,0.020905,0.0383,-0.019684,-0.0044251
-0.10056,0.017853,-0.1323,-0.029145,0.018769,0.038605,-0.02121,0.011444
-0.041657,-0.11826,-0.15885,-0.062409,0.019684,-0.014191,0.041962,0.035248
-0.0083925,-0.21012,-0.012665,-0.12497,0.015412,0.0080873,0.26352,0.029755
-0.0090028,-0.042267,-0.1326,-0.11643,0.057527,-0.035248,0.29221,-0.0090028
-0.099336,0.063325,-0.097505,-0.10513,0.030365,-0.031586,0.23423,0.002594
-0.094453,0.14878,-0.13107,-0.0972,-0.077363,0.026093,-0.11429,0.041962
-0.053559,0.086213,-0.092012,-0.09659,-0.081331,0.0038148,-0.92332,0.024262
-0.066072,0.0016785,-0.0074769,-0.08072,-0.024872,0.0047303,-0.059052,0.070039
-0.022736,-0.056001,-0.056611,-0.11368,-0.036469,0.012055,0.17777,0.058137
0.097505,-0.23606,0.0022889,-0.099031,-0.022431,0.017243,0.025483,0.058137
0.070344,-0.23392,0.05478,-0.087434,-0.0010681,0.018463,0.077974,0.0047303
0.011749,-0.068513,-0.016022,-0.010834,0.013886,0.013275,0.025483,-0.076143
0.042878,0.041352,-0.038605,0.038911,0.035554,-0.0035096,0.0383,-0.051423
0.0096132,0.077668,-0.027924,-0.027314,0.10666,-0.02121,0.026703,-0.084993
-0.024872,-0.10391,-0.0065614,-0.05539,0.099641,-0.0099184,0.043488,-0.070954
-0.10239,-0.063935,-0.034333,-0.09659,0.036774,0.024567,0.10544,0.0053407
-0.19608,0.01236,-0.066682,-0.13443,0.0032044,0.039216,0.10239,0.064546
-0.13321,0.022736,-0.064546,-0.073701,-0.018463,0.050507,0.092622,0.12039
0.092012,-0.13016,-0.13443,-0.074617,0.0050355,0.024872,0.055085,0.11063
-0.053864,0.20279,-0.18326,-0.14725,0.0056458,0.0041199,0.0074769,0.019074
-0.023346,0.022431,-0.11154,-0.1384,-0.023651,0.024262,-0.049287,-0.035859
-0.0080873,0.085298,-0.088655,-0.11978,-0.056001,0.041352,-0.018769,-0.02121
-0.035248,0.037385,-0.078889,-0.083467,-0.044404,0.022736,0.011444,0.029145
-0.12345,0.094148,-0.088655,-0.10666,-0.033112,0.0068666,-0.078889,0.061799
-0.037079,0.033112,-0.053254,-0.099031,-0.0086976,0.0083925,0.057527,0.079194
-0.0019837,0.021515,-0.0053407,-0.010834,-0.016327,0.0022889,0.10819,0.069123
-0.073091,-0.095979,0.061799,0.034638,0.0206,-0.019989,-0.10147,-0.010834
0.073396,-0.44572,0.024567,-0.081331,0.058442,-0.0010681,-0.08072,-0.014191
0.027314,-0.47593,0.0074769,0.027924,0.030365,0.024872,0.032197,-0.044709
-0.044404,-0.11032,-0.019684,0.14694,0.084077,-0.053864,-0.26139,-0.13535
0.020294,-0.075532,-0.11093,-0.27543,0.11582,-0.02884,-0.094453,-0.040436
-0.073396,0.034333,-0.015717,-0.1973,-0.027314,0.070344,0.20859,-0.0086976
-0.093233,0.027619,-0.055085,-0.22599,0.03006,0.016327,0.034333,-0.051118
0.075227,-0.11948,-0.084688,-0.026093,0.076448,-0.010224,0.06424,0.019989
0.10422,0.052644,-0.10269,-0.023041,-0.0062562,0.034333,0.059052,0.056306
0.059663,0.074311,-0.13657,-0.038911,-0.044709,0.042267,0.019074,-0.00045777
-0.04654,-0.061799,-0.062104,0.011749,-0.04654,0.0083925,0.014191,0.027314
-0.14176,0.077668,-0.17319,-0.0083925,-0.02884,-0.0077821,0.02121,0.062409
-0.11521,0.19944,-0.074617,-0.15702,0.029755,-0.039216,-0.010529,0.0383
-0.13535,0.096284,-0.061799,-0.23484,0.033112,-0.023651,-0.0056458,0.054475
-0.090791,0.027619,-0.052644,-0.121,-0.013275,-0.011749,0.027008,0.086519
0.0016785,-0.12009,-0.044404,-0.074311,-0.078889,0.045319,0.084077,0.11826
-0.048981,-0.012055,-0.041962,-0.044404,-0.028534,0.036164,0.055085,0.047456
0.0056458,-0.042573,-0.013886,-0.084382,0.0016785,0.022736,-0.009308,-0.009308
0.06424,-0.16861,0.025788,-0.082856,0.016022,0.044709,-0.025788,0.0013733
-0.026398,-0.051423,0.024872,-0.074922,0.034333,0.034333,-0.02945,-0.042573
-0.08835,0.059358,-0.016632,-0.14755,0.058137,0.005951,-0.021515,-0.041047
-0.026703,0.0016785,-0.090791,-0.17502,0.0035096,0.053559,0.078584,0.0074769
0.066682,-0.15335,-0.028534,0.024567,-0.037079,0.1033,0.095979,-0.029145
0.097505,-0.31449,-0.058442,0.2092,-0.017243,0.042267,-0.0062562,-0.061494
0.12192,-0.26169,-0.0206,0.012665,0.059052,-0.022736,-0.027008,-0.070039
0.023651,-0.13596,-0.067903,-0.059052,0.11246,-0.067903,-0.072175,-0.090791
-0.03769,0.11582,-0.14145,0.17197,0.11002,-0.08957,-0.078279,-0.042878
-0.12802,0.23392,-0.13626,-0.078279,0.10666,-0.083772,-0.048981,-0.0019837
-0.15549,0.12802,-0.11246,-0.3444,0.013581,-0.014801,0.0038148,0.042878
-0.12772,-0.099641,-0.12467,-0.25284,-0.10513,0.061494,0.082246,0.099031
-0.098116,-0.15854,-0.048371,-0.17319,-0.11765,0.073701,0.12375,0.098116
-0.10727,-0.096284,-0.0074769,-0.18784,-0.093843,0.028534,-0.011444,0.11154
-0.10361,0.041962,-0.013886,-0.052644,-0.04654,0.033112,0.055085,0.12528
-0.02945,0.1915,-0.087129,0.089876,0.0383,0.0013733,0.035859,0.099031
0.057221,0.17624,-0.016327,-0.0080873,0.066682,-0.010834,-0.099031,0.0016785
0.061494,-0.026093,-0.030671,-0.093538,0.033112,-0.023651,-0.081636,-0.074006
0.041657,-0.16831,0.00015259,-0.10758,0.044404,0.010834,0.023041,-0.076143
-0.041352,-0.16342,-0.0077821,-0.07248,0.012055,0.062104,0.082856,-0.036469
-0.012665,-0.10025,-0.032502,-0.034943,0.0096132,0.060883,0.20798,-0.016938
-0.025177,-0.088655,-0.056001,-0.039216,0.038911,0.045624,0.20096,-0.018463
0.0080873,-0.1738,0.058137,-0.023651,0.045319,-0.0032044,0.14267,-0.01236
0.041962,-0.26291,-0.074006,-0.083772,0.039216,-0.0050355,0.025483,-0.039216
-0.025177,0.12558,-0.1796,-0.10513,0.0099184,-0.024262,-0.73808,-0.049592
-0.078279,0.14237,-0.14939,-0.13046,-0.025483,-0.031891,-0.39597,0.03769
-0.079194,0.14511,-0.14145,-0.12711,-0.032502,0.019379,0.28275,0.056611
-0.07187,0.068513,-0.11856,-0.065461,-0.030976,0.020294,0.068208,0.086213
-0.10636,0.0099184,-0.081025,-0.10269,-0.031586,0.042573,0.12589,0.064546
-0.079194,0.0044251,-0.084382,-0.24735,-0.029145,0.052338,0.25742,0.061189
-0.091402,0.023651,-0.0086976,-0.13046,-0.030671,0.034028,0.17502,0.07248
-0.041047,-0.060273,-0.0074769,0.016938,0.0206,-0.027619,-0.00076295,0.059358
0.094759,-0.10147,-0.062104,-0.041352,0.04593,-0.1146,-0.23819,0.059358
0.14115,-0.14542,-0.025483,-0.058137,0.051118,-0.053864,-0.30045,-0.024872
0.08835,-0.1387,0.041962,0.012055,-0.0053407,0.11978,0.18448,-0.075532
-0.014801,-0.22293,0.019684,-0.052949,0.019074,0.058747,0.14084,-0.070649
-0.059052,0.02945,0.015412,-0.065766,0.069734,-0.018769,-0.043183,-0.059358
-0.044709,0.014496,-0.035554,-0.026703,0.033417,-0.0013733,-0.026703,0.0038148
-0.04654,-0.092317,-0.049287,-0.036164,0.033112,0.041657,0.027008,-0.014496
0.11917,-0.2739,-0.095979,-0.078279,0.048371,0.010834,0.041047,-0.034333
-0.04654,0.015106,-0.083467,-0.14542,0.016632,-0.014801,-0.0080873,-0.06302
-0.16312,0.12131,-0.23117,-0.20768,-0.037385,0.018463,0.051118,-0.002594
-0.11978,-0.14603,-0.027619,-0.097505,-0.064851,0.019379,0.045624,0.08835
-0.056001,-0.081636,-0.14054,-0.011444,-0.06302,0.019074,-0.014801,0.059968
-0.034638,0.16526,-0.13046,0.0016785,0.027619,-0.051118,-0.08896,0.02884
-0.10452,0.30594,-0.1796,-0.084688,0.07126,-0.084077,-0.042573,0.012665
-0.11185,0.30076,-0.013581,-0.15122,-0.0083925,-0.040436,0.017853,0.059358
-0.22354,0.08835,0.011444,-0.099641,-0.061494,0.020905,0.09659,0.037079
-0.083467,-0.067903,0.058137,-0.08835,-0.033722,0.062104,0.28397,0.072175
0.25223,-0.4036,0.17502,-0.019074,0.011749,0.099947,0.22751,0.090181
0.31876,-0.61418,-0.05417,-0.016632,0.025177,0.036164,-0.069123,-0.050813
0.12436,-0.38163,-0.076448,-0.10758,0.12558,-0.16434,-0.439,-0.15
0.00045777,-0.041657,-0.029145,-0.083162,0.071565,-0.035554,-0.21866,-0.11337
-0.012665,0.067597,-0.024567,-0.016022,0.0074769,0.097505,0.46525,-0.019379
-0.10117,0.15915,-0.031891,0.077058,0.036164,0.033112,0.22293,-0.0041199
-0.093843,0.015717,-0.062409,0.076143,0.033417,0.037995,0.10147,0.023957
-0.043793,0.0083925,-0.15274,-0.10697,0.039826,0.009308,-0.19303,0.049592
-0.057832,0.01236,-0.1799,-0.19883,0.019379,-0.067903,-0.66178,0.056001
-0.058137,0.089265,-0.11734,-0.16739,-0.026703,-0.02182,-0.059052,0.070039
-0.046845,0.059968,-0.087434,-0.15183,-0.049287,0.025483,0.22721,0.051423
-0.13169,0.22263,-0.121,-0.19486,-0.041047,-0.0080873,0.08072,0.049897
-0.059358,0.025177,-0.10758,-0.1384,-0.065156,0.058747,0.13931,0.12833
-0.028229,-0.072175,-0.056611,-0.08896,-0.04654,0.046235,0.093843,0.0795
-0.17716,0.0013733,-0.058442,-0.070954,-0.010529,0.0062562,0.025788,0.0028992
-0.16709,-0.0383,-0.0019837,0.017243,-0.035554,0.032197,0.0383,0.02884
-0.11002,-0.094453,0.06302,0.027924,-0.015106,0.023041,0.0383,0.015717
-0.072786,-0.026398,0.002594,-0.099336,0.049592,-0.016327,-0.036774,-0.094148
0.056611,-0.11612,-0.05417,-0.045014,0.027008,-0.0032044,-0.015106,-0.033112
0.24552,-0.22263,-0.0077821,-0.013581,0.048371,0.039521,0.10391,0.014191
0.28,-0.26688,-0.00076295,0.029755,0.074006,0.051728,0.18692,-0.030671
0.091707,-0.10208,-0.027924,-0.15549,0.034333,0.0065614,0.16922,-0.061799
-0.12039,0.028229,-0.078889,-0.17411,0.035554,0.010834,0.22171,-0.089876
-0.11765,0.076143,-0.077363,-0.21012,0.023346,-0.011444,-0.43168,-0.11826
0.00045777,-0.0038148,-0.096284,-0.0013733,0.028229,-0.051728,-0.83665,-0.074006
-0.021515,0.094148,-0.13626,-0.032197,0.0099184,0.020905,0.12711,-0.002594
-0.051118,0.031281,-0.12222,-0.017548,0.0035096,-0.03006,0.098116,0.031281
-0.12161,-0.1207,-0.092927,-0.068818,0.0068666,-0.051728,0.053864,0.10239
-0.024872,-0.1619,-0.10697,-0.21927,-0.040436,0.0383,0.20066,0.13413
-0.1323,-0.014191,-0.018769,-0.20523,-0.023041,0.0022889,0.055085,0.048981
-0.15824,0.09659,-0.08957,-0.073091,-0.027008,-0.00076295,0.0071717,0.035248
-0.036469,0.018158,-0.00076295,-0.019074,-0.076753,0.060273,0.055695,0.094759
-0.00045777,0.025177,-0.093233,-0.08835,-0.016327,0.029145,0.068208,0.024872
-0.081025,0.26993,-0.037995,-0.13565,-0.0068666,0.039216,0.02945,0.017853
-0.06302,0.081941,-0.0206,-0.25498,-0.024872,0.075227,0.023346,0.027008
-0.057832,-0.11398,0.046235,0.3328,0.011444,0.066377,0.11612,0.0010681
0.11154,-0.56779,-0.018463,0.0019837,0.12161,-0.02182,0.052338,-0.017548
0.072175,-0.20554,0.0041199,0.04715,0.15854,-0.066377,0.04654,-0.039826
0.12284,-0.38895,0.009308,0.0028992,0.0056458,-0.0056458,-0.039826,-0.0096132
0.20554,-0.33646,-0.17533,-0.092927,0.065766,-0.035554,-0.27543,-0.053254
0.075532,0.18357,-0.095369,-0.12161,0.061189,-0.00076295,0.055695,-0.11124
-0.074617,0.36881,-0.023957,-0.083162,-0.002594,0.0019837,-0.0019837,-0.11154
-0.14145,0.0972,-0.1088,-0.076753,-0.009308,0.0071717,-0.030976,-0.016938
-0.12192,-0.14481,-0.12467,-0.12741,-0.010529,0.010529,0.045319,0.048981
-0.17319,0.00045777,-0.10727,-0.1619,-0.057527,0.0019837,0.082551,0.11368
-0.22263,0.018158,-0.11978,-0.19516,-0.095369,0.023041,0.10239,0.15396
-0.12833,0.050507,-0.11368,-0.1146,-0.099031,0.077363,0.21134,0.19181
-0.059968,0.20737,0.0062562,-0.13687,-0.036774,0.062715,0.29557,0.1445
0.049897,0.17777,-0.085908,-0.039216,0.027619,0.034028,0.20279,0.07187
0.1442,-0.33005,0.075837,0.022736,0.068513,-0.014191,0.13382,0.022126
0.1323,-0.1857,-0.029145,-0.037385,0.084382,-0.051728,-0.49332,-0.10025
0.074006,-0.078584,-0.032807,-0.046235,0.059663,-0.031891,-0.76646,-0.12222
-0.00015259,-0.26413,0.028229,-0.024262,0.022126,0.023346,0.15732,-0.077668
0.057527,-0.1149,-0.082551,-0.044099,0.016632,0.02945,0.095979,-0.034638
-0.10208,0.044709,-0.041657,-0.073091,0.038911,-0.0090028,-0.035554,-0.053559
-0.0053407,0.08011,-0.13169,-0.092317,0.027619,-0.019379,-0.026398,-0.049897
-0.031891,0.018463,-0.08011,-0.11521,0.0096132,0.037385,0.039216,-0.077058
-0.048981,-0.070954,-0.016022,-0.11673,-0.019074,0.029145,0.032807,-0.097505
-0.014496,-0.11582,-0.027008,-0.018463,0.010834,-0.017243,0.019989,-0.031281
-0.042573,0.00045777,-0.15244,-0.12589,0.019684,-0.0016785,0.051728,0.019684
-0.068208,0.0038148,-0.05417,-0.13535,-0.0083925,0.0062562,0.08011,0.05417
-0.17197,0.11032,-0.12894,-0.24643,-0.0074769,-0.033112,-0.0074769,0.071565
-0.24338,0.11246,-0.07248,-0.077058,-0.047761,-0.023957,-0.11612,0.11032
-0.17472,0.12772,-0.095979,-0.084382,-0.099641,0.041047,0.056611,0.15152
-0.092317,0.060578,-0.069429,-0.0019837,-0.069429,0.037385,0.084382,0.083772
-0.00015259,-0.15244,0.005951,0.16037,-0.031281,0.014496,0.05539,0.05417
0.075837,-0.19791,-0.0068666,0.099641,0.059358,-0.015717,0.045319,0.049287
0.17014,-0.16281,-0.012055,-0.3444,0.13107,-0.043488,0.0080873,0.02884
0.15854,-0.074617,-0.0016785,-0.060578,0.093233,0.014496,0.031281,0.0041199
0.010834,-0.087739,-0.028534,0.16098,0.069123,0.028534,0.048371,-0.053559
-0.043488,-0.014801,-0.034028,-0.33738,0.039826,0.023957,-0.032502,-0.14054
-0.039826,-0.10697,0.0013733,-0.058137,-0.061189,0.091707,-0.019379,-0.10544
0.023957,-0.1207,-0.063935,-0.050507,-0.017243,0.019989,-0.03769,-0.067903
0.01297,-0.01297,-0.1268,-0.039521,0.059663,-0.035248,-0.040742,-0.057832
-0.099947,0.1619,-0.13443,-0.11368,0.032807,0.009308,0.076143,-0.05539
-0.15213,0.12131,-0.15305,-0.12375,-0.0080873,0.016327,0.043488,0.011749
-0.18936,0.21958,-0.16129,-0.16922,-0.019379,0.015106,0.018769,0.069429
-0.092317,-0.071565,0.065156,-0.089265,-0.045624,0.016632,0.033417,0.13901
0.0065614,-0.28,0.044099,-0.11948,-0.076753,0.031586,0.037995,0.1561
0.068513,-0.098116,-0.093538,-0.097505,-0.052644,0.0065614,0.018158,0.10605
0.0383,-0.062409,-0.060883,-0.020294,-0.015412,-0.027314,-0.018463,0.052338
0.005951,0.039521,-0.11032,-0.05417,0.014191,-0.0032044,-0.018158,0.033417
-0.12009,0.083162,-0.070649,-0.032502,0.02884,0.026093,0.0032044,0.0056458
-0.009308,0.030671,0.025788,0.047456,0.0053407,0.031281,-0.012665,0.040436
0.043793,-0.24857,0.017853,-0.026093,0.042267,0.012665,0.023346,0.016632
0.11917,-0.38804,-0.032502,-0.057221,0.081941,0.0028992,0.068208,-0.059358
-0.031281,-0.15579,-0.056916,-0.072786,0.086213,-0.029145,0.044404,-0.14633
-0.094148,0.078584,0.0065614,-0.11307,0.083467,-0.029145,-0.021515,-0.15335
-0.053864,-0.035554,-0.016022,-0.050202,-0.036774,0.048981,-0.023041,-0.025177
-0.053864,0.023957,-0.060273,-0.014801,-0.0056458,0.00045777,-0.077668,-0.021515
0.0795,-0.085908,-0.13382,-0.1265,0.059663,0.0086976,0.17044,0.012055
0.049592,-0.066987,-0.058442,-0.14328,0.055085,0.026093,0.35599,0.013886
-0.14481,0.37064,-0.14389,-0.12924,0.041962,-0.0096132,0.089876,0.04593
-0.085908,0.066377,-0.11368,-0.066682,-0.044709,0.044404,-0.025177,0.1976
-0.051423,-0.097505,-0.11124,-0.15274,-0.08835,-0.051423,-0.44419,0.13077
-0.0056458,-0.066987,-0.14054,-0.17655,-0.063325,-0.041352,-0.30014,0.080415
-0.066072,-0.0035096,-0.11551,-0.12039,-0.059052,0.034943,0.2855,0.092622
-0.087739,-0.11063,0.019684,-0.036774,-0.038605,0.0010681,0.095674,0.068208
-0.056611,-0.084382,0.009308,-0.0028992,0.0071717,0.0099184,-0.022431,0.042878
-0.031586,-0.04654,-0.019074,-0.024262,0.057221,-0.0041199,-0.020294,-0.059358
-0.0090028,0.005951,-0.017853,-0.010834,0.027619,0.0071717,-0.0062562,-0.082856
-0.014801,0.015412,-0.032807,-0.084382,0.0096132,0.031281,0.024262,-0.068818
0.061799,-0.074922,0.0074769,-0.060273,0.0099184,0.041657,0.0080873,-0.074617
-0.0056458,-0.00015259,0.00076295,-0.13779,-0.011139,0.066377,0.063325,-0.050813
-0.015412,-0.23545,0.024872,-0.082551,-0.0010681,0.066987,0.059968,-0.024872
0.12589,-0.32181,-0.18387,-0.0047303,0.049287,0.015412,-0.012055,-0.024567
0.08957,-0.11337,-0.039216,0.023957,0.17044,-0.092622,-0.1091,-0.077974
-0.034638,0.09781,-0.049897,-0.045319,0.10422,-0.059052,-0.062715,-0.10147
-0.074006,0.10117,-0.11948,-0.095369,-0.040436,0.036469,0.023041,0.01297
-0.1387,0.069429,-0.068513,-0.13718,-0.041352,0.014496,0.053254,0.030976
-0.13535,0.10269,-0.13321,-0.12863,-0.03769,-0.023346,0.043183,0.06302
-0.065766,0.12802,-0.17075,-0.070344,-0.061799,-0.0383,-0.030671,0.076143
-0.086213,0.040131,-0.070954,-0.12314,-0.0028992,-0.010834,-0.056001,0.059968
-0.041352,-0.27543,-0.044404,-0.064851,0.025483,0.024262,0.017853,0.11032
-0.18204,0.090486,0.023957,-0.061494,-0.021515,0.013886,0.046235,0.075837
-0.06363,0.047761,-0.055085,-0.050202,-0.02884,0.026093,0.012055,0.012055
0.036164,-0.042267,-0.053254,-0.068208,-0.020905,0.048371,0.033417,0.0090028
-0.0065614,-0.031891,0.0074769,-0.073396,0.0077821,0.027314,0.035859,-0.018158
0.088655,-0.14054,-0.034638,-0.17136,0.017243,0.0047303,-0.0028992,-0.0013733
0.15457,-0.38376,0.024872,-0.068513,0.048371,0.0019837,0.065766,0.009308
0.1326,-0.23697,0.015717,-0.019684,0.041657,0.080415,0.22263,-0.037385
0.045014,0.034333,-0.051118,-0.013275,0.037079,0.052949,0.24033,-0.054475
0.031281,0.032197,-0.070039,0.013581,0.063325,-0.0077821,0.34012,-0.025483
-0.034333,0.11765,-0.10605,-0.099947,0.059968,-0.0383,-0.020905,-0.033722
-0.12863,0.0022889,-0.10208,-0.13901,0.023041,-0.033112,-0.92088,-0.065156
-0.049897,-0.1561,-0.049897,-0.070344,-0.0044251,-0.024262,-0.23087,0.00076295
-0.18021,-0.0053407,-0.10513,-0.051118,0.017243,-0.043793,-0.062715,0.040131
-0.10727,0.11582,-0.11521,-0.12284,-0.019684,0.05539,0.0795,0.07126
-0.066987,0.16587,-0.13443,-0.13504,-0.074617,0.038911,0.11246,0.1268
-0.19181,0.21653,-0.13291,-0.19669,-0.039826,0.027008,0.10056,0.087434
-0.14817,0.081331,-0.057221,-0.13199,-0.010224,0.079194,0.1207,0.12284
-0.057832,-0.16678,-0.016632,-0.044099,-0.067903,0.0795,0.14023,0.15732
-0.033417,-0.28641,-0.00045777,-0.041657,-0.042878,0.0032044,0.067903,0.052949
-0.054475,0.057527,-0.047761,-0.070649,0.046845,-0.052949,0.0096132,0.0050355
-0.057221,-0.016632,-0.00076295,-0.00076295,0.0038148,0.010529,0.095979,-0.012665
0.10483,-0.33646,-0.0038148,0.093538,-0.011444,0.034333,0.2266,-0.016938
0.15152,-0.35599,0.0035096,0.009308,0.081636,-0.02884,0.15427,-0.12009
0.10056,-0.10452,-0.056916,-0.087739,0.13443,-0.052033,0.1323,-0.19394
0.14603,0.12009,-0.046845,-0.090791,-0.00015259,0.056611,0.051423,-0.11948
0.023346,0.30442,-0.1091,-0.23209,0.014801,0.0099184,-0.68009,-0.16403
0.019989,0.12253,-0.05478,-0.13901,0.026703,0.0022889,-0.027008,-0.056001
-0.0068666,-0.066682,-0.1149,-0.016632,0.011749,-0.024872,0.12284,0.02182
0.0016785,-0.27237,-0.10697,-0.0383,0.052949,-0.10544,-0.50401,-0.0206
-0.044709,-0.3682,0.051728,-0.086824,0.025788,-0.061799,-0.14603,0.015412
-0.13138,-0.20096,-0.074311,-0.21561,-0.0086976,-0.017853,0.22721,0.057832
-0.061494,0.36423,-0.2089,-0.046845,-0.019379,0.024872,0.21408,0.092927
-0.12345,0.4744,-0.18601,0.015412,-0.0047303,-0.032197,-0.3032,0.071565
-0.26169,0.17319,-0.022736,-0.23758,0.047761,-0.053559,-0.11826,0.070344
-0.15763,-0.14572,0.061799,0.14145,-0.11978,0.081636,0.23331,0.17502
0.022736,-0.58366,-0.010529,0.0050355,-0.038605,0.079194,0.15335,0.16464
0.031891,-0.10575,-0.034028,-0.25345,0.065156,0.031586,0.11795,0.063325
0.053254,-0.061799,-0.036164,-0.121,-0.0068666,0.071565,0.095979,0.033722
0.0068666,0.014496,-0.010224,-0.0206,-0.035248,0.093233,0.092622,0.011139
-0.0047303,-0.0013733,-0.019074,-0.065461,-0.017243,0.067597,0.075227,-0.048676
-0.00076295,-0.052033,0.018769,-0.10697,0.03769,0.019074,0.03769,-0.0795
-0.044404,-0.01236,-0.033112,-0.070344,0.023041,0.002594,0.052338,-0.081025
0.020294,-0.16587,-0.013886,0.0068666,0.027619,-0.0080873,0.085298,-0.056611
0.0090028,-0.098726,-0.19333,-0.10544,0.067292,-0.016022,0.04654,-0.052644
-0.048676,0.074617,-0.14359,-0.099336,0.05539,-0.024262,-0.072786,-0.042878
-0.060883,0.0062562,-0.10819,-0.1384,-0.009308,0.002594,-0.047456,0.017243
-0.075227,-0.032197,-0.08957,-0.17288,-0.012055,-0.0016785,0.019989,0.049592
-0.12406,0.099336,-0.064851,-0.014496,-0.044709,-0.0080873,-0.05478,0.096895
-0.091096,0.056001,-0.045014,0.012665,-0.031586,-0.018158,-0.083162,0.074311
-0.054475,0.22446,-0.16922,-0.103,0.019379,-0.011139,0.037995,0.040436
-0.027314,0.15335,-0.060883,-0.13596,-0.0041199,-0.005951,0.019684,0.027924
-0.029145,-0.12009,0.009308,-0.044099,-0.038911,0.026093,0.012055,0.032807
0.08835,-0.23636,-0.023957,-0.036164,-0.00076295,0.026398,0.090181,0.047456
0.081941,-0.18814,-0.018463,-0.06363,0.016022,0.028534,0.042267,0.010834
-0.030365,0.10788,-0.0065614,0.00045777,0.049897,0.0206,0.013886,-0.057832
0.028229,-0.018769,0.005951,-0.078279,0.047761,0.036469,-0.036469,-0.034333
0.017548,-0.1445,0.059663,-0.087434,0.074617,0.0028992,-0.030671,-0.091096
0.099641,-0.35233,-0.048371,-0.084993,0.075227,-0.0038148,0.013886,-0.077974
0.10178,-0.29587,-0.10422,-0.098421,0.075532,0.0050355,0.045624,-0.084382
-0.013275,-0.015412,-0.084382,-0.059052,0.051728,0.0028992,0.002594,-0.059358
-0.14145,0.14847,-0.11856,-0.094759,0.011139,-0.0047303,-0.045014,0.0080873
-0.17716,0.13809,-0.12985,-0.10666,-0.018463,0.01297,-0.0044251,0.056001
-0.22324,0.041962,-0.050202,-0.083772,-0.055695,0.027008,0.086213,0.089876
-0.19608,0.0080873,-0.035554,-0.066682,-0.04715,0.023957,0.088655,0.083772
-0.075532,0.0022889,-0.18265,-0.10758,-0.022126,0.0068666,0.013886,0.077974
-0.048371,0.16251,-0.14633,-0.15122,0.010834,-0.075837,-0.11551,0.0074769
-0.0028992,0.11337,-0.10452,-0.16342,-0.023651,-0.052338,-0.12253,0.066682
0.039521,-0.056306,0.010834,-0.10269,-0.092012,0.073701,0.053864,0.10178
0.10849,-0.098421,0.074311,0.095369,-0.067597,0.060883,0.10208,0.081636
0.031891,0.0077821,-0.030671,-0.15854,0.016938,0.017853,0.11276,0.033722
-0.014191,-0.05417,-0.073396,-0.15854,0.065156,0.024567,0.24491,-0.054475
-0.051118,-0.2443,0.034638,0.015717,0.0035096,0.058747,0.12833,-0.027008
0.078584,-0.44602,-0.049287,-0.021515,0.040436,0.033417,-0.027619,0.053864
0.20249,-0.29465,0.063935,0.027008,0.077974,-0.073091,-0.30991,0.011749
0.17746,-0.31083,-0.033722,0.009308,0.096895,-0.0016785,-0.28305,-0.097505
-0.028534,0.10391,-0.058747,-0.035554,0.1268,0.02121,0.11887,-0.14603
-0.15946,0.21012,-0.10361,-0.10788,0.059968,-0.027314,-0.0065614,-0.065156
-0.14969,0.1796,-0.098116,-0.16251,0.0032044,0.0086976,-0.044709,-0.011444
-0.17166,0.051423,-0.14633,-0.10361,-0.043488,0.0206,-0.041047,0.013886
-0.095674,0.070344,-0.1323,-0.086824,-0.046845,-0.012055,0.042878,0.060578
-0.074006,0.18357,-0.16953,-0.15976,-0.038911,0.0206,0.23758,0.037385
-0.025788,0.019684,-0.11704,-0.10758,-0.077974,0.067597,0.1149,0.078279
-0.070039,0.084688,-0.092927,-0.03769,-0.07187,0.022126,-0.014496,0.091707
-0.058137,0.069429,-0.029755,-0.10483,-0.01297,-0.0053407,0.019684,0.07126
-0.084077,0.069123,-0.036469,-0.085603,0.025788,-0.020294,-0.002594,0.052338
-0.12222,-0.13016,0.0077821,-0.060883,0.059358,-0.035554,-0.16251,-0.017243
-0.11643,-0.16159,0.064546,-0.046235,0.015412,0.010529,-0.030365,0.019989
0.024262,-0.21897,0.094453,-0.02121,-0.0032044,0.051728,0.10178,0.050202
0.12589,-0.36179,0.037995,-0.019379,0.049287,0.032197,0.041047,0.017548
0.11398,-0.048066,-0.14054,-0.074922,0.066072,0.034638,0.022736,-0.049592
0.072786,0.066682,0.016022,-0.057527,0.041962,0.045624,0.011749,-0.090181
0.10239,-0.21622,-0.089265,-0.026398,0.0010681,0.055695,0.026093,-0.046845
0.082856,-0.26383,-0.062715,-0.10452,0.054475,-0.0086976,-0.010529,-0.054475
0.013886,-0.12192,-0.067292,-0.11154,0.045319,-0.016938,-0.03769,-0.047456
-0.070954,-0.02884,-0.12863,-0.14878,-0.010224,0.029145,-0.0074769,-0.0022889
-0.12131,0.10178,-0.11154,-0.051423,-0.022431,0.011139,0.018158,0.022126
-0.19028,0.30991,-0.23056,-0.15,-0.020294,-0.013581,0.07248,0.012665
-0.16281,0.39017,-0.10605,-0.15183,-0.010224,-0.049897,0.033112,0.024872
-0.13962,0.1915,-0.075227,-0.12375,-0.044404,-0.023346,-0.057527,0.081941
-0.14481,0.035859,-0.072786,0.0010681,-0.057527,0.036774,-0.029145,0.073396
-0.0080873,-0.29404,0.0071717,0.055085,-0.033112,0.030976,0.0383,0.094453
0.033417,-0.215,0.037995,0.057832,0.0074769,0.0047303,0.020905,0.052949
-0.033722,-0.076753,0.027314,-0.05478,0.031891,-0.014191,0.005951,-0.0041199
0.103,-0.19852,0.014496,-0.065461,0.046845,-0.033722,0.13046,0.011749
0.076753,-0.084688,-0.076753,-0.29404,0.056916,0.020294,0.37369,-0.024262
0.041352,-0.067903,-0.10025,-0.11154,0.056001,0.11856,0.62577,-0.043793
-0.012665,-0.03006,0.086519,0.049287,0.0071717,0.047456,0.11154,-0.025483
-0.014496,-0.11582,-0.042267,-0.05478,0.036164,-0.027924,-0.83513,-0.034638
-0.11765,-0.02884,-0.11429,-0.092927,0.053254,-0.059663,-0.78813,-0.043183
-0.04593,0.010529,-0.055695,-0.087739,0.015412,-0.011749,-0.3798,-0.0032044
0.062104,-0.10544,-0.1088,-0.086519,-0.019379,0.07248,0.35752,0.063935
0.051423,-0.002594,-0.10422,-0.075227,0.0016785,0.025483,0.25742,-0.013275
-0.0019837,-0.058442,-0.11307,-0.058137,0.011749,-0.0068666,0.24155,-0.0080873
-0.11704,0.17716,-0.13962,-0.084688,0.037079,-0.037995,0.14725,-0.0096132
-0.12558,0.069123,-0.088045,-0.14481,0.0065614,-0.031281,0.017548,0.011444
-0.16831,0.076753,-0.092927,-0.15366,-0.036469,-0.0074769,-0.11215,0.074311
-0.15885,0.092012,-0.072175,-0.12436,-0.097505,-0.0032044,-0.25284,0.10788
-0.034333,0.036469,-0.055085,-0.050202,-0.10391,0.045624,-0.0071717,0.12253
0.05417,-0.17472,0.091096,-0.041352,-0.05539,0.048371,0.24002,0.056306
0.099947,-0.17777,-0.0044251,0.026703,0.043183,-0.031586,0.033722,-0.0074769
0.053864,-0.103,-0.048066,-0.023651,0.10636,0.0010681,0.011444,0.0019837
-0.037079,-0.020294,-0.019074,-0.00076295,0.0795,0.042267,0.028229,-0.015106
0.039826,-0.13413,-0.0056458,-0.10636,0.050507,0.0038148,0.020294,-0.015106
0.055695,-0.040436,-0.03006,-0.14084,0.12222,-0.0050355,0.045624,-0.041047
-0.011139,-0.12192,-0.025483,-0.18906,0.056916,0.042573,0.093538,-0.066682
0.05417,-0.19303,-0.080415,-0.15091,-0.00015259,0.013275,0.052033,-0.010224
0.029145,-0.22629,-0.064546,0.49851,0.0035096,-0.00076295,0.092927,-0.047761
-0.10025,0.22751,-0.14755,-0.31846,0.049897,-0.027924,0.020294,-0.099641
-0.17197,0.25193,-0.1735,-0.18326,-0.02884,0.036469,0.13931,-0.030976
-0.081025,0.0099184,-0.08011,-0.06302,-0.085908,0.037995,0.033112,-0.02945
0.0038148,-0.19486,0.07126,-0.10239,0.026093,-0.017243,-0.21256,0.015717
-0.057832,-0.13046,-0.084688,-0.12985,0.041657,0.028229,0.00045777,0.075227
-0.083162,0.0071717,-0.094759,-0.073091,-0.0206,-0.067292,-0.33005,0.12314
-0.074617,-0.04654,-0.084993,-0.07248,-0.045014,-0.043793,-0.22751,0.16342
-0.045014,0.067597,-0.082856,-0.036469,-0.065766,0.090791,0.31174,0.1323
-0.015717,0.027924,-0.038911,-0.085603,-0.02884,0.028534,0.32181,0.088655
-0.11368,0.047761,-0.012055,-0.25681,0.030365,0.00045777,0.11917,-0.041352
0.03006,-0.03769,-0.0028992,0.083772,-0.015106,0.059663,0.11521,-0.028534
0.086519,-0.18448,0.099031,-0.099031,0.084688,0.018463,0.013275,-0.065156
-0.023346,-0.037385,-0.045624,-0.0019837,0.074617,0.0083925,-0.41215,-0.1146
-0.13413,0.16526,-0.099641,-0.090486,0.021515,0.040436,-0.11856,-0.073091
-0.089265,0.063325,-0.10452,-0.036774,0.011444,0.058442,0.13107,-0.016632
0.093843,-0.28763,-0.08011,0.033112,-0.0022889,0.035554,0.053559,0.017243
0.0019837,-0.0096132,-0.1146,-0.096284,0.049592,-0.005951,0.069429,0.018158
0.04715,-0.14847,0.034638,-0.11368,0.038911,-0.010224,0.024872,-0.0206
0.060578,-0.1854,-0.041047,-0.084688,-0.02945,0.02121,0.066072,0.078279
-0.15091,0.095979,-0.15396,-0.017243,-0.016632,-0.020294,-0.093233,0.059358
-0.18448,-0.070649,-0.13321,-0.12985,0.02182,-0.032197,-0.15824,0.069429
-0.085908,0.037995,-0.075837,-0.15702,0.047456,-0.027924,0.032807,0.091707
-0.044709,0.086213,-0.037995,-0.14115,-0.060578,0.03006,0.10452,0.092927
-0.035554,0.017243,-0.060578,-0.069123,-0.075837,0.027924,0.12528,0.083772
0.047761,-0.20157,-0.044404,-0.16861,-0.066072,0.039216,0.093538,0.070344
0.040436,-0.19272,0.014191,0.013886,-0.0028992,-0.0013733,0.048981,0.040436
0.11002,0.094759,-0.060883,0.121,0.052949,-0.02121,-0.0090028,-0.016632
0.056001,0.18418,-0.016022,0.027924,0.12833,-0.045014,-0.058747,-0.13626
0.15,-0.056611,-0.01297,-0.12528,0.11429,0.01297,0.005951,-0.10208
0.034943,-0.12161,-0.0056458,-0.17929,0.034333,0.048981,0.0096132,-0.072786
-0.035859,-0.26383,-0.013886,-0.023651,0.057527,-0.005951,-0.043183,-0.12833
-0.061799,-0.074006,-0.10727,-0.066987,-0.0013733,0.043488,0.002594,-0.067292
-0.022126,-0.11429,-0.052033,-0.050813,0.017853,0.0053407,-0.02884,-0.037079
-0.13565,0.17777,-0.091402,-0.099947,0.015106,0.0022889,-0.025177,-0.01297
-0.0972,0.14328,-0.10513,-0.12497,0.019379,-0.018158,-0.019074,-0.02884
0.016938,0.099947,-0.12741,-0.093233,-0.016632,-0.0080873,0.011444,0.066682
-0.036774,-0.11551,-0.11368,-0.099947,-0.063935,0.016327,0.043183,0.10269
-0.074922,-0.16281,-0.10544,-0.097505,-0.0096132,-0.016938,-0.0041199,0.091707
-0.14084,0.14511,-0.11551,-0.14084,-0.0206,-0.016938,0.0080873,0.1503
-0.13565,0.11063,-0.056916,-0.085298,-0.05478,0.0077821,0.039826,0.14054
-0.11856,0.037079,-0.025483,-0.085603,-0.041352,0.0083925,0.047761,0.097505
-0.0795,-0.07248,-0.018463,-0.074617,-0.013581,0.0099184,0.04593,0.084382
-0.0047303,-0.14176,0.0013733,-0.056306,-0.035248,0.067292,0.068208,0.06424
0.039216,-0.18051,-0.0096132,-0.031586,-0.017548,0.070344,0.076143,0.0080873
0.075227,-0.1268,-0.011444,-0.055085,0.034028,0.039216,0.02182,-0.040436
0.028229,-0.11887,0.010529,-0.036774,0.057221,0.033417,0.0041199,-0.08072
0.011749,-0.058137,-0.0068666,-0.081636,0.081941,0.028534,-0.024567,-0.093233
0.027314,-0.11795,-0.057221,-0.081636,0.048371,0.033417,0.013886,-0.067903
0.00076295,-0.046235,-0.062715,-0.048981,0.019989,0.042878,0.13779,-0.048981
-0.039216,-0.0047303,-0.084077,-0.103,0.040436,0.024872,0.19852,-0.034638
-0.14359,0.091707,-0.18479,-0.1146,0.036774,-0.013275,-0.04654,-0.040742
-0.064851,-0.0065614,-0.072175,-0.027619,-0.010224,-0.041352,-0.28733,0.027008
-0.103,-0.010224,-0.084993,-0.072786,0.010834,-0.11948,-0.309,0.015717
-0.076753,0.032502,-0.0972,-0.1149,-0.0019837,-0.027008,-0.1564,0.044099
0.0068666,0.011444,-0.073396,-0.023041,-0.060883,0.066987,0.23911,0.10666
0.012665,0.16373,-0.073396,-0.077363,-0.014191,-0.0056458,0.095674,0.067597
-0.063325,0.15427,-0.075227,-0.13962,0.027924,-0.015717,0.037995,0.0099184
-0.079194,0.00015259,-0.025483,-0.10483,-0.0083925,-0.01297,0.078279,0.023651
0.027619,-0.27756,0.011444,-0.052644,-0.035859,0.030365,0.066072,0.051118
-0.04654,-0.044404,-0.028229,-0.046235,0.014801,0.0062562,0.0068666,0.011139
-0.10056,0.14328,-0.019074,-0.051728,0.016632,-0.0016785,-0.075227,0.030365
-0.045319,-0.010224,-0.085298,-0.063325,0.012055,0.044709,-0.13352,0.036164
0.12894,-0.45274,-0.0053407,0.013886,0.014801,0.082246,0.13321,-0.012665
0.2031,-0.40665,-0.014191,-0.024567,0.053864,0.046235,0.33768,-0.048371
0.10636,-0.11643,-0.030976,-0.13779,0.072175,-0.058137,0.14023,-0.10941
0.05417,-0.12161,0.0096132,-0.14755,0.029755,-0.0068666,0.19974,-0.056611
-0.11978,0.12558,-0.13107,-0.13657,0.055695,0.014496,-0.27543,-0.081025
-0.096895,0.01236,-0.060578,-0.10056,0.058137,-0.053864,-0.97612,-0.060578
-0.0083925,-0.070649,-0.044404,-0.01236,-0.019074,0.013275,0.074311,0.069123
-0.093538,0.032502,-0.13352,-0.044709,0.0035096,-0.0013733,0.20249,0.022736
-0.15274,0.3621,-0.17563,-0.05539,-0.0086976,-0.0016785,0.047761,0.048981
-0.17441,0.2504,-0.12467,-0.093538,-0.041962,0.010224,0.11612,0.1146
-0.034333,-0.010834,-0.12741,-0.084382,-0.0044251,-0.027619,0.07248,0.069123
-0.014801,-0.062409,-0.022126,-0.23117,-0.025177,0.0032044,0.076753,0.089265
-0.10056,-0.026398,-0.019074,-0.041352,-0.012055,-0.0056458,0.02121,0.070649
0.0016785,-0.1384,-0.074006,-0.092317,-0.026398,0.10788,0.12924,0.11002
0.12406,-0.40879,0.068208,-0.062715,-0.030671,0.10941,0.16098,0.081636
0.06363,-0.20768,-0.037995,-0.022431,0.025483,0.018463,0.059968,-0.023346
-0.016327,-0.014191,-0.018158,0.00076295,0.069123,-0.01297,-0.022431,-0.035859
-0.02884,0.12131,-0.050507,-0.12039,0.034028,0.011139,-0.087129,-0.065156
-0.087129,-0.014191,0.016327,-0.11307,0.010529,0.019074,-0.015717,-0.065766
-0.11215,-0.12802,0.077668,-0.0083925,-0.024872,0.054475,0.06363,0.012665
-0.040436,-0.2678,-0.036164,-0.0013733,0.025483,0.018158,0.039216,0.0086976
-0.045014,0.010224,-0.16892,-0.040742,0.094453,-0.036164,0.059052,-0.041047
0.00076295,0.059358,-0.1033,-0.024567,0.036774,0.0065614,0.16312,-0.030365
0.018158,0.14511,-0.14237,-0.09781,0.026703,-0.016022,0.20584,-0.022126
-0.061799,0.08957,-0.14542,-0.13474,-0.0032044,-0.029755,0.1915,-0.011444
-0.066072,0.18875,-0.14176,-0.17502,-0.025177,-0.056306,-0.67796,0.041352
-0.081025,0.20066,-0.098421,-0.040742,-0.056916,0.0068666,-0.3978,0.086519
-0.0086976,0.027314,-0.015412,-0.10727,-0.045319,0.031281,0.29648,0.059052
0.1265,-0.2269,-0.050202,-0.12985,-0.024872,-0.066377,-0.31357,-0.011444
0.011139,-0.25498,0.03006,-0.066987,0.013275,-0.0077821,-0.048981,-0.025177
0.005951,-0.02182,-0.021515,-0.012665,0.074006,0.062104,0.24155,-0.023346
0.0038148,-0.17441,-0.0065614,-0.042878,0.037385,0.065461,0.14817,0.02884
-0.028229,-0.18265,0.002594,-0.0041199,-0.0019837,0.037995,0.0795,0.050202
-0.06363,-0.11734,0.015412,0.02884,0.026093,0.027314,0.054475,0.0019837
-0.009308,-0.18357,-0.033112,-0.22934,0.048371,0.0038148,0.019684,-0.025483
0.00076295,-0.086824,-0.042573,-0.19211,0.053559,-0.0013733,-0.0080873,-0.043793
0.015717,-0.060273,-0.061189,0.063935,-0.0013733,0.048066,0.022736,-0.022431
0.047761,0.06424,-0.094453,-0.095674,-0.015106,0.034333,0.016938,-0.035248
-0.093843,0.13596,-0.18875,-0.1857,0.0010681,-0.0074769,0.038911,-0.020905
-0.24704,0.23209,-0.103,-0.077668,-0.072786,0.026703,0.12314,0.031586
-0.24949,0.15213,-0.084077,-0.074617,-0.035859,0.023957,0.080415,0.090791
-0.10056,-0.05417,-0.056916,-0.19577,0.017243,0.039521,0.035554,0.11643
0.0795,-0.26841,-0.082551,0.095674,-0.034638,0.023041,0.026093,0.095979
-0.012055,0.016327,-0.055695,0.019379,0.014191,-0.078584,-0.23819,-0.017243
-0.13565,0.14878,-0.11032,-0.19089,0.14511,-0.13169,-0.31022,-0.078279
-0.087129,0.13626,-0.068818,-0.096895,-0.043488,0.027314,0.12711,0.063325
0.045624,-0.04654,-0.034333,-0.14084,-0.010834,-0.0032044,0.11154,0.077974
0.22812,-0.30625,-0.027619,-0.075837,0.00076295,0.022431,0.18753,0.010834
0.28519,-0.32303,0.1033,0.019989,-0.019379,0.056306,0.17655,-0.031891
0.13077,-0.34409,0.081025,-0.005951,0.078279,0.00076295,-0.0028992,-0.072786
-0.081025,-0.098421,-0.048066,-0.028229,0.074311,-0.0080873,-0.14633,-0.11063
-0.08896,0.10056,-0.12833,-0.103,0.057527,-0.037385,-0.28794,-0.090181
-0.099031,0.040131,-0.086824,-0.09781,0.026703,0.016327,-0.10208,-0.042573
-0.15366,0.18387,-0.0972,-0.1149,0.0077821,0.083162,0.077974,0.019989
-0.055085,-0.033417,0.005951,-0.034943,-0.0010681,0.066682,0.12436,0.07248
0.22538,-0.44236,0.095369,-0.040436,-0.010529,0.070344,0.099031,0.089876
-0.0096132,0.26566,-0.18326,-0.17777,0.0041199,-0.017548,-0.045624,0.0065614
-0.13993,0.22141,-0.27451,-0.19577,0.0090028,-0.05539,-0.027619,-0.002594
-0.13016,0.16831,-0.17929,-0.11917,-0.0795,0.042878,0.1564,0.12894
-0.18936,-0.070649,-0.039826,-0.10849,-0.051423,0.031586,0.18448,0.074617
-0.10544,-0.050202,-0.045624,-0.078584,-0.030976,0.040131,0.24002,0.075532
0.024262,-0.045624,-0.027924,0.048066,-0.016327,-0.011444,-0.17227,0.052338
0.026093,-0.058747,-0.024567,0.10727,0.030976,-0.030976,-0.439,-0.014801
-0.092927,-0.0056458,-0.002594,-0.083467,0.06302,-0.013581,0.10269,-0.0041199
-0.041352,-0.08957,0.010529,-0.088655,0.044404,-0.014801,0.06363,0.023346
-0.00076295,-0.1738,0.032197,0.060883,0.012665,0.028534,0.0013733,-0.019684
-0.059358,-0.14206,-0.019684,0.020905,0.023957,0.04715,0.034333,-0.039216
-0.017548,-0.078584,-0.059968,-0.17105,0.070649,0.022736,0.0013733,-0.032807
-0.060883,0.064546,-0.081025,-0.16342,0.035554,0.016327,-0.0013733,-0.045624
-0.078889,0.027924,-0.048981,-0.12131,-0.035248,0.068818,0.05539,-0.0041199
0.049287,-0.15702,-0.036774,-0.069429,-0.02121,0.058442,0.048981,-0.01236
0.13382,-0.084993,-0.053864,-0.061189,0.0086976,0.018158,0.077974,-0.025483
0.013886,0.10452,-0.076753,-0.094453,0.060273,-0.025483,0.0065614,-0.062715
-0.07126,-0.0044251,-0.11917,-0.10788,0.043183,-0.037079,-0.040742,-0.0065614
-0.096895,0.0044251,-0.1384,-0.10086,0.015717,-0.060578,-0.039521,0.053864
-0.17594,0.016327,-0.13107,-0.12284,-0.0028992,-0.031586,-0.082856,0.043488
-0.13077,0.035248,-0.12436,-0.121,-0.040742,0.034028,0.066682,0.11643
0.024872,0.017243,-0.10971,-0.096284,-0.081941,0.027314,0.084077,0.12039
0.0099184,-0.016632,-0.074922,-0.121,-0.057221,0.012665,0.013275,0.043793
0.017548,-0.16648,0.013581,-0.084993,-0.041047,0.040436,0.031891,0.023346
0.043793,-0.25162,0.10788,-0.069123,-0.015412,0.049592,0.08835,0.015717
0.0074769,-0.10849,0.018769,-0.01236,0.042267,0.027008,0.19089,-0.020905
0.0086976,0.040131,-0.044099,-0.028534,0.053254,0.010529,0.08957,-0.023651
-0.049897,0.076753,-0.050813,-0.10727,0.059052,-0.025177,-0.099641,-0.02121
0.065461,-0.121,0.0062562,0.017548,0.049287,-0.083162,-0.39292,-0.048371
0.1387,-0.19059,-0.072786,0.081331,0.034333,-0.0047303,-0.34867,-0.085603
0.011139,-0.077668,-0.078584,0.0099184,0.10269,0.031586,0.16281,-0.13077
0.0050355,0.053864,-0.12863,-0.24613,0.058442,-0.016022,0.21378,-0.073091
-0.14206,0.23362,-0.035859,-0.14908,0.0206,-0.0022889,0.31083,0.019684
-0.092927,-0.034333,-0.049287,-0.046235,0.063935,-0.0038148,0.34836,0.051423
-0.08072,-0.1265,-0.14633,-0.23148,-0.031281,0.011444,0.082856,0.11032
-0.10056,-0.18814,-0.068513,-0.066682,-0.020294,-0.052338,-0.87572,0.048066
-0.12345,0.10178,-0.13382,-0.074922,0.017243,-0.073701,-0.49363,0.061494
-0.083772,0.16983,-0.11276,-0.11154,-0.030365,0.044709,0.28397,0.098726
-0.002594,0.072175,-0.068818,-0.03769,-0.091402,0.048066,0.17288,0.087739
0.048981,-0.087739,-0.01297,-0.067597,-0.04593,0.01297,0.23117,0.078279
0.020905,-0.077668,-0.015412,-0.07126,-0.030365,0.06424,0.14542,-0.040436
-0.055695,0.031586,0.037995,-0.050507,-0.0022889,0.012665,-0.009308,-0.09781
-0.017243,-0.033722,0.0065614,0.013581,-0.0028992,0.030365,0.041962,-0.019684
0.02182,-0.16556,-0.0077821,-0.0050355,0.025483,0.013275,-0.083772,-0.0068666
0.059663,-0.2501,-0.036164,0.0068666,0.04715,0.0083925,-0.043793,-0.0019837
-0.010834,-0.17411,-0.010529,-0.03006,0.052033,0.018463,0.058442,-0.0083925
0.035859,-0.20859,-0.061189,-0.25101,0.078584,0.0047303,0.005951,-0.0053407
-0.002594,-0.059663,-0.08072,-0.18967,0.023041,0.043488,0.048371,0.0090028
-0.094453,0.12802,-0.094148,0.010834,0.013886,0.043488,0.040436,-0.011139
-0.083467,0.20127,-0.13504,-0.036774,0.012665,0.042878,0.053254,0.037385
-0.072786,0.10575,-0.14694,-0.16892,-0.039826,0.045624,0.035859,0.047761
-0.11063,0.13535,-0.099336,-0.12375,-0.030365,0.0077821,-0.016632,0.0032044
-0.13962,-0.052033,0.010529,-0.095369,-0.036774,0.023346,0.13443,0.08072
-0.094148,-0.27237,-0.058137,-0.099336,-0.048371,-0.011444,0.18387,0.11673
-0.078889,-0.14878,-0.11551,-0.11185,-0.030671,-0.0071717,0.23575,0.10544
-0.031281,0.086213,-0.08835,-0.090486,-0.014496,-0.018158,-0.0041199,0.024872
-0.053254,0.050507,-0.080415,-0.049592,-0.0047303,-0.061189,-0.91081,-0.048981
-0.041352,0.093538,-0.10117,-0.073396,-0.0083925,0.046845,-0.0086976,0.027314
0.033417,0.080415,0.081025,-0.0065614,-0.025483,0.11795,0.36545,0.049287
0.040131,-0.1442,0.05417,0.0035096,0.049287,0.0090028,0.049897,-0.018158
0.1149,-0.32364,0.036164,0.040131,0.084688,-0.04593,-0.070954,-0.066682
0.14542,-0.29984,0.035554,-0.019379,0.065766,-0.0056458,-0.082856,-0.088045
0.1091,-0.18692,-0.032807,-0.051728,0.10422,-0.017548,-0.010834,-0.14755
0.076448,-0.034638,-0.10452,-0.11185,0.076753,-0.009308,-0.0053407,-0.13687
0.054475,-0.10758,-0.11887,-0.061494,0.027314,0.002594,0.098116,-0.081331
0.017243,0.028534,-0.13718,-0.04715,0.029755,-0.042267,0.041657,-0.048371
-0.037079,0.20951,-0.10819,-0.11704,0.054475,-0.039521,-0.04593,-0.0074769
-0.10117,0.12345,-0.12131,-0.11093,0.01297,-0.016938,-0.062104,0.0074769
-0.10513,0.068208,-0.1268,-0.12894,-0.026398,-0.030976,-0.077974,0.035248
-0.12467,0.13321,-0.097505,-0.14572,-0.048676,0.0077821,-0.0080873,0.059358
-0.14603,0.087739,-0.088655,-0.14847,-0.075837,0.0010681,-0.017548,0.08072
-0.17807,0.024262,-0.021515,-0.05478,-0.077363,0.016022,-0.010529,0.1088
-0.10849,-0.036164,-0.027924,-0.05417,-0.035248,0.05478,0.17502,0.15488
-0.056611,-0.11337,-0.0053407,-0.10758,-0.022126,0.040742,0.26749,0.13809
0.034333,-0.25193,-0.0090028,-0.051423,-0.036774,0.010224,0.17533,0.089876
-0.014496,-0.075532,0.0071717,-0.085908,0.041047,0.043488,0.15305,0.039826
-0.070954,-0.042878,-0.030365,-0.016632,0.07248,0.066377,-0.053254,0.017853
-0.002594,-0.066987,-0.11856,-0.096284,0.026703,0.016632,-0.27756,0.0053407
-0.040742,-0.14481,0.026398,-0.099947,0.070649,0.023041,0.083772,-0.047761
-0.10056,0.0047303,-0.024262,-0.034333,0.063325,-0.0038148,-0.017243,-0.11429
-0.012055,0.065461,-0.051118,-0.081636,0.022126,0.027008,-0.083162,-0.064546
0.08072,0.0056458,-0.056306,-0.095674,-0.034638,0.082551,0.10391,0.013275
0.16129,0.11002,-0.10452,0.0077821,-0.010529,0.021515,0.020294,-0.0206
0.11673,-0.06363,-0.11704,-0.014191,0.066682,-0.074311,-0.016327,-0.062715
-0.10391,-0.15152,-0.081025,-0.13718,0.084688,-0.086213,0.016022,-0.04654
-0.039826,-0.33829,-0.093233,-0.1268,-0.025788,-0.0022889,0.034333,0.041352
-0.0083925,-0.14786,-0.11856,-0.14359,-0.059358,-0.02182,0.040131,0.090181
-0.1265,0.10147,-0.094148,-0.1265,-0.031281,-0.053559,-0.16617,0.066072
0.041962,0.090181,-0.065766,-0.10239,-0.053559,0.034638,-0.23514,0.12436
-0.0028992,0.098726,-0.030365,-0.044709,-0.041962,0.056306,0.10422,0.093538
-0.073091,-0.052338,-0.03006,-0.018158,0.0032044,-0.0050355,0.041962,-0.019684
-0.057221,-0.070344,-0.092622,-0.0074769,0.015106,-0.03006,-0.01236,0.0077821
0.075227,-0.13474,0.014496,-0.11551,0.016938,0.019379,-0.031281,-0.03769
-0.049287,-0.12284,0.064546,-0.053559,0.00076295,0.092622,0.12406,-0.11368
0.010834,-0.17227,0.0044251,-0.12345,0.02945,0.044709,0.096895,-0.050813
0.02121,-0.084688,-0.027924,0.035859,0.069734,0.0090028,-0.038605,-0.031281
-0.025483,-0.005951,-0.08957,0.0074769,0.061494,-0.0032044,-0.08072,-0.077363
-0.056001,0.035859,-0.069429,-0.10697,0.02945,0.016938,0.0041199,-0.041352
-0.062104,-0.0044251,-0.052033,-0.12467,0.023041,-0.0038148,0.019074,0.0080873
-0.074006,0.0206,-0.042573,-0.073701,-0.010834,0.005951,0.015412,0.0383
-0.2031,0.2208,-0.15274,-0.13657,0.019074,-0.011139,0.15457,0.012665
-0.18021,0.094759,-0.19394,-0.21103,-0.0047303,0.0083925,0.22507,0.025788
-0.24369,0.28519,-0.12161,-0.14542,-0.059358,0.048981,0.080415,0.041657
-0.12833,-0.019989,-0.0047303,0.13748,-0.065766,0.045624,-0.11063,0.11368
0.060578,-0.21286,-0.10819,-0.21134,0.035554,-0.074311,-0.39689,0.061494
0.1857,-0.52445,-0.055085,-0.15579,-0.019074,0.0083925,0.026703,0.121
0.16068,-0.069734,-0.051118,-0.056916,-0.056916,0.048981,0.4097,0.12619
-0.068208,0.11734,0.030976,-0.005951,0.028229,0.0028992,0.26383,0.023957
-0.12039,-0.043488,0.082856,-0.032502,0.077668,-0.009308,0.12406,0.029755
0.041962,-0.066377,0.0041199,0.041352,0.02945,0.05539,0.19181,0.087739
0.13016,-0.0053407,0.0022889,0.00045777,0.050202,-0.0032044,-0.45365,-0.025788
0.121,-0.15579,-0.067292,-0.082246,0.10391,-0.077974,-1.0628,-0.17685
0.023346,-0.23178,0.027619,-0.086824,0.048981,0.034333,0.20127,-0.11734
0.015106,-0.20951,-0.08835,-0.079805,-0.0062562,0.02884,0.24521,-0.0795
-0.032807,-0.040131,-0.15854,-0.078279,-0.010529,0.0022889,0.031586,-0.066682
-0.015717,-0.069429,-0.060273,-0.022126,0.0016785,-0.014191,0.074617,-0.039826
0.034943,0.14359,-0.16648,-0.062409,0.0050355,-0.013886,-0.0022889,-0.0096132
-0.071565,0.12192,-0.12833,-0.12253,0.067292,-0.016327,0.017243,0.0013733
-0.17044,0.15763,-0.10849,-0.12284,0.020905,-0.018158,0.072786,0.022126
-0.12619,0.14572,-0.10147,-0.14542,-0.061799,-0.019989,0.094453,0.064546
-0.092317,0.050202,-0.10819,-0.24826,-0.086824,0.012665,-0.019074,0.061189
-0.12345,0.092622,-0.14176,-0.392,-0.085603,0.042878,-0.0041199,0.075227
-0.1503,0.058137,0.0013733,0.1677,-0.045014,0.02884,0.0028992,0.081941
-0.11612,-0.076753,0.034638,-0.094759,-0.034943,0.051118,0.059052,0.082246
0.0383,-0.27665,0.037385,0.099641,-0.04654,0.077058,0.12039,0.092622
0.18387,-0.24796,0.083162,0.18204,0.072175,-0.0086976,0.023041,0.0086976
0.14084,-0.22568,-0.011444,0.060273,0.093843,-0.041047,-0.035554,-0.08835
-0.04654,0.057221,-0.052338,-0.2089,0.11948,-0.011444,-0.027619,-0.17044
-0.02884,-0.070954,-0.051118,-0.27573,0.059358,0.064851,0.037079,-0.038605
0.030976,-0.14664,-0.084688,-0.17472,0.0019837,0.051728,0.021515,0.0010681
0.0068666,-0.036469,-0.051728,0.00076295,0.031281,0.0050355,0.002594,-0.028534
-0.067903,0.076448,-0.04593,-0.0083925,0.056916,-0.039521,-0.019074,-0.017548
-0.16068,0.14542,-0.13169,-0.090486,0.02182,-0.016022,0.061189,0.035859
-0.057221,-0.077668,-0.10452,-0.070344,-0.04593,0.02884,0.067292,0.061799
-0.04593,-0.062715,-0.14542,-0.1268,-0.0383,0.0019837,-0.01297,0.076143
0.0010681,-0.1088,-0.16556,-0.12131,-0.050507,0.010224,-0.081331,0.059663
0.043488,0.1033,-0.083467,-0.068513,-0.037079,0.0032044,-0.12802,0.034333
-0.047761,0.069734,-0.039216,-0.087129,0.0074769,-0.011444,0.076753,0.041047
-0.099031,-0.048981,0.012055,-0.07126,0.0047303,-0.0099184,0.02884,0.03769
-0.081636,-0.1326,-0.012055,-0.013581,-0.022736,0.015412,0.043793,0.08072
-0.0083925,-0.055695,-0.057832,-0.05478,0.0050355,0.0013733,0.082246,0.076448
0.023957,-0.0080873,-0.07248,-0.14572,0.035859,-0.034333,0.052949,0.025483
0.03006,-0.084993,-0.0016785,-0.1033,0.0090028,0.027314,0.10391,-0.023041
0.015106,-0.12284,0.033417,-0.078889,-0.019074,0.074617,-0.00045777,-0.081941
0.025788,-0.13657,-0.01297,-0.012665,-0.0022889,0.023957,-0.072175,-0.058137
-0.01297,-0.084993,-0.029145,0.023651,0.02121,0.030365,0.0077821,-0.0383
-0.0028992,-0.027924,-0.042573,0.070039,0.067597,0.013886,0.10575,-0.033417
-0.038911,-0.014191,-0.014496,-0.11093,0.10483,0.010224,0.15488,-0.047761
-0.12619,-0.025483,-0.1091,-0.15335,0.048981,0.0080873,0.12436,-0.044709
-0.061799,0.027314,-0.10971,-0.11582,-0.016327,-0.01297,-0.20127,-0.0047303
-0.08011,0.062715,-0.13291,-0.067292,-0.026398,-0.00076295,-0.51347,0.038911
-0.085908,0.098116,-0.067292,-0.085908,0.010834,-0.0071717,0.021515,0.073396
-0.072786,-0.059968,-0.099031,-0.12802,0.015717,-0.018769,0.13779,0.07187
0.058442,-0.11643,-0.12253,-0.16098,-0.038911,0.040742,0.10361,0.1146
-0.020294,0.19638,-0.074617,-0.098726,-0.045319,0.036469,0.088045,0.047456
-0.086824,0.059663,-0.082856,-0.055695,-0.0383,0.014496,0.027314,0.027924
-0.072175,0.066377,-0.051118,-0.062715,-0.022736,0.00076295,0.053559,0.058137
-0.0013733,-0.00076295,-0.04654,0.0056458,-0.026398,0.016938,0.067292,0.055695
-0.014191,-0.20829,0.030976,-0.10544,0.00045777,0.026703,0.054475,0.0056458
-0.064546,-0.15946,0.13504,-0.032807,0.066682,-0.027924,-0.043183,-0.060578
0.0795,-0.42161,0.015717,-0.023041,0.095674,-0.012665,-0.035859,-0.070039
0.044404,-0.086519,-0.121,0.0071717,0.080415,0.005951,-0.035554,-0.11124
0.048371,-0.066987,-0.088655,-0.095674,0.048981,0.012665,0.039521,-0.0972
0.14389,-0.11673,-0.04654,-0.1915,0.027619,0.041352,0.20066,-0.018769
-0.023346,0.088045,-0.016632,-0.030976,-0.0068666,0.044404,0.22538,0.011444
-0.098421,0.070039,-0.059052,-0.06302,-0.037385,0.044099,0.24216,0.041657
-0.095979,0.087739,-0.17533,-0.13962,-0.012055,0.002594,-0.47349,0.036164
0.020905,-0.12375,-0.17655,-0.076448,-0.043793,0.00076295,-0.66636,0.0383
-0.1445,-0.00076295,-0.083162,-0.092622,0.02121,-0.035248,0.2153,0.0028992
-0.16159,-0.02884,-0.024567,-0.11124,0.086824,-0.081331,-0.0019837,-0.025788
-0.076753,-0.029755,-0.10452,-0.077058,-0.032807,0.016632,0.066377,0.082856
-0.019684,0.30472,-0.1564,-0.06363,-0.070954,0.040131,0.10178,0.092927
0.0068666,0.034333,-0.03769,-0.07126,0.014191,-0.016327,-0.010529,0.041352
-0.0028992,-0.076143,-0.023957,-0.0383,0.015717,-0.009308,0.010529,0.024872
0.07126,-0.11429,-0.032502,-0.14969,0.0056458,0.00015259,0.082246,0.043183
0.042878,-0.23056,-0.027619,-0.11185,-0.017548,0.036774,0.10605,0.0065614
-0.0090028,-0.11734,-0.013886,-0.041352,-0.024262,0.072175,0.0795,-0.017243
-0.029755,-0.11612,0.076753,0.048676,0.00045777,0.071565,0.069123,-0.0050355
-0.065156,0.014496,0.07187,-0.0071717,0.072175,0.0032044,0.0010681,-0.059052
0.039521,-0.072786,0.019379,-0.033417,0.077974,-0.022736,-0.057832,-0.060578
0.009308,-0.10788,-0.10208,-0.15732,0.04593,-0.045319,-0.16648,-0.086824
-0.035248,-0.1442,-0.11124,-0.089876,0.10147,-0.077974,-0.10758,-0.09781
-0.0044251,0.00045777,-0.17166,-0.12467,0.019989,0.011139,0.16434,-0.037385
-0.016327,-0.038605,-0.10147,-0.066987,-0.041657,-0.0013733,0.18051,0.017548
-0.099947,0.011444,-0.096284,-0.1146,-0.021515,0.0080873,0.18051,0.0086976
-0.10361,0.07187,-0.1149,-0.15854,-0.049287,0.044709,0.22171,0.103
-0.12589,0.1445,-0.11765,-0.1268,-0.057527,0.025177,-0.075227,0.13809
-0.091402,-0.078584,-0.1088,-0.085603,-0.018769,-0.025788,-0.57511,0.10178
-0.096895,0.081331,-0.078889,-0.086824,0.011749,0.011139,-0.25864,0.10269
-0.002594,0.035859,-0.050202,-0.02884,-0.015106,0.024567,0.054475,0.065461
-0.0062562,0.082246,-0.025483,-0.041047,-0.018463,0.036774,0.23026,0.025788
-0.048981,0.0206,0.030976,-0.10269,0.023651,0.0090028,0.15396,0.005951
-0.025788,-0.20218,0.070649,-0.075837,-0.013581,0.06302,0.12467,0.024872
0.011749,-0.17563,0.0206,-0.054475,0.0019837,0.059358,0.10636,-0.011444
-0.0056458,-0.21012,0.036774,-0.0050355,0.0080873,0.038911,0.049897,-0.026703
0.033417,-0.16953,-0.068208,0.035554,0.049592,-0.0080873,0.020294,-0.0053407
0.0074769,-0.1207,-0.072175,0.0071717,0.093233,-0.020294,-0.0028992,-0.057221
-0.022736,0.0019837,-0.10605,-0.14176,0.085908,0.020905,0.15396,-0.092012
-0.037079,0.15335,-0.077974,-0.075227,0.059968,0.0062562,0.20371,-0.041352
0.027008,0.0044251,-0.08957,-0.040131,-0.0032044,0.017243,0.20676,0.0099184
-0.051728,-0.043793,-0.15976,-0.10697,0.022126,-0.016022,0.12833,-0.014496
0.1445,-0.1323,-0.12741,-0.047456,0.016632,-0.10483,-0.83665,-0.069429
-0.032502,0.26444,-0.072786,-0.10727,-0.026703,-0.077668,-0.81468,0.0099184
-0.15946,-0.07248,-0.13443,-0.099031,-0.038911,0.022431,0.38712,0.10483
-0.067597,-0.0056458,-0.074922,-0.12467,-0.066987,0.027008,0.053864,0.098116
0.0099184,-0.023651,-0.022126,-0.27604,-0.035554,0.044099,0.20493,0.083772
-0.0065614,-0.022431,-0.0068666,-0.2211,0.015717,0.026703,0.15152,0.046235
-0.081941,-0.11856,-0.00076295,0.023041,0.029755,-0.0056458,-0.033417,0.030365
-0.010529,-0.17655,0.016022,0.065461,0.027314,0.019074,0.020905,0.0068666
-0.041962,-0.10819,-0.019684,-0.081331,0.017548,0.037995,0.013886,-0.016938
-0.042878,-0.014496,-0.092622,-0.10056,-0.023651,0.068818,0.046235,-0.082246
-0.055695,0.11521,-0.0077821,-0.037079,-0.023651,0.081331,0.075227,-0.091707
-0.06302,0.0038148,0.00015259,-0.02884,-0.0010681,0.061494,0.27604,-0.042878
-0.052033,-0.031891,-0.011444,-0.032502,0.0010681,0.041047,0.28244,-0.0071717
0.029145,-0.13016,-0.049287,0.084688,0.033112,0.0062562,0.094148,0.012055
0.12589,-0.16587,-0.26413,-0.10056,0.093843,-0.10391,-0.27512,-0.025483
0.0074769,0.27939,-0.17655,-0.34867,0.12314,-0.15854,-0.4625,-0.070039
-0.050813,0.061189,0.01236,0.0010681,0.052338,-0.018769,0.031586,-0.014801
0.016632,-0.34958,0.00045777,0.099641,0.012665,0.010834,0.10178,0.11032
-0.0022889,-0.44602,-0.041657,-0.12284,0.0074769,-0.010834,0.026703,0.094759
-0.12009,0.14939,-0.13382,-0.17075,-0.059052,-0.018158,0.03006,0.092317
-0.18326,0.21225,-0.11429,-0.1857,-0.070039,-0.0050355,0.019379,0.10971
-0.16373,0.16464,-0.039826,-0.084688,-0.056611,0.05539,0.10758,0.1265
-0.051118,0.0080873,-0.029145,-0.044099,-0.023651,0.062104,0.091402,0.10758
0.019379,-0.09781,-0.0028992,-0.065461,-0.017548,0.075227,0.057221,0.080415
0.049287,-0.1323,-0.025483,-0.09781,-0.0035096,0.069734,0.081331,0.035859
0.059358,-0.1146,-0.0044251,-0.17136,0.041352,0.039216,0.083772,-0.033417
-0.0019837,0.087129,0.00015259,0.3151,0.053864,0.023041,0.0099184,-0.083772
-0.02945,-0.0206,-0.018158,-0.21134,0.079194,-0.012665,-0.047761,-0.12619
-0.017548,-0.16037,-0.04654,-0.046235,0.013275,0.0053407,-0.11032,-0.12222
0.023346,-0.25772,-0.065766,-0.018158,-0.026703,0.029145,-0.13748,-0.11124
0.015717,-0.17227,-0.081331,-0.073396,0.042267,0.0080873,-0.009308,-0.063935
-0.0206,-0.011749,-0.069123,-0.15396,0.033112,-0.0074769,0.016022,-0.014801
-0.052644,0.32029,-0.215,-0.19791,0.0019837,-0.0016785,-0.0032044,-0.021515
-0.10147,0.11246,-0.092012,-0.10513,-0.048676,-0.0019837,0.016022,-0.00045777
-0.018769,-0.047456,-0.058442,-0.086824,0.0065614,-0.047761,0.012055,0.057832
-0.016938,0.050202,-0.11215,0.025483,-0.0071717,-0.015717,0.040131,0.1265
-0.11948,-0.072175,-0.067292,0.031281,-0.045319,-0.0086976,0.015717,0.042267
-0.12161,-0.034638,-0.053864,-0.084688,-0.019074,-0.039216,-0.032502,0.038911
-0.078279,0.022431,-0.056001,-0.15763,-0.016327,0.002594,0.025177,0.10575
-0.074617,-0.12284,0.054475,-0.16922,0.026703,0.055085,0.027619,0.07248
0.012665,-0.04654,-0.050202,-0.078584,0.030976,0.040131,0.020294,0.028229
0.047456,-0.039826,-0.011749,-0.037385,0.0050355,0.0206,0.019379,-0.0013733
0.075227,-0.10758,0.050202,0.0071717,0.016938,0.0065614,0.058442,-0.032807
0.10605,-0.073701,-0.00076295,-0.016022,0.053864,0.005951,0.0074769,-0.062715
0.10605,0.069734,-0.024872,-0.005951,0.027008,0.02945,-0.045319,-0.053864
-0.035248,-0.11826,-0.066072,-0.13748,0.042878,0.037995,-0.0028992,-0.052949
-0.077363,-0.41032,-0.084077,-0.14359,0.10544,0.027008,0.020905,-0.05539
-0.0041199,-0.15274,-0.10636,-0.061799,0.013886,0.042878,0.053254,-0.0013733
-0.043183,0.15549,-0.095979,-0.070954,-0.0010681,-0.033722,0.098421,-0.018158
-0.12924,0.15549,-0.07126,-0.056611,0.025788,-0.031586,0.089265,-0.019684
-0.16037,0.24002,-0.1735,-0.1326,-0.020294,0.01297,-0.02884,0.051728
-0.024872,-0.012055,-0.15274,-0.15457,-0.028534,-0.01297,-0.058137,0.10666
-0.07187,-0.10544,-0.10361,-0.14664,-0.032197,-0.009308,-0.058747,0.071565
-0.063935,0.0016785,-0.06424,-0.12253,-0.052033,0.015106,0.009308,0.069734
-0.058137,-0.024872,0.058747,-0.044404,-0.067292,0.050813,0.095369,0.10971
-0.010224,-0.064546,-0.070649,0.0074769,-0.038605,0.034333,0.032807,0.077974
0.025788,-0.072786,-0.022736,-0.069123,0.025177,0.0053407,0.02182,0.0028992
0.045624,-0.15213,-0.042267,-0.052338,0.046845,-0.0047303,0.0050355,-0.037079
0.050202,-0.095369,-0.0086976,-0.044099,0.030976,0.011444,-0.0080873,-0.033417
0.080415,-0.13748,0.077668,0.011749,0.042267,0.0090028,-0.042878,-0.059052
0.02121,-0.10483,-0.014801,-0.013275,0.092012,-0.014801,-0.045014,-0.086824
-0.042878,0.032502,-0.055695,-0.044709,0.1265,-0.025483,-0.036469,-0.099947
0.019074,0.015717,-0.11093,-0.05417,0.059968,0.009308,0.015717,-0.048371
-0.0062562,0.048371,-0.08957,-0.14481,0.0028992,-0.0056458,-0.0090028,-0.044709
-0.070954,-0.0062562,-0.08011,-0.19181,0.018158,-0.050507,-0.10147,-0.043488
-0.049897,-0.24643,-0.038911,-0.13077,-0.043183,0.045319,0.021515,0.027924
-0.13352,-0.045624,-0.08957,-0.14786,-0.028229,0.041047,0.098116,0.049592
-0.2504,0.36667,-0.084688,-0.069123,-0.0065614,-0.011139,0.02121,0.10361
-0.085298,0.19974,-0.14267,-0.037385,-0.042878,0.02121,0.05539,0.1622
-0.091402,0.13321,-0.20951,-0.12497,-0.027008,0.0041199,0.079805,0.14328
-0.024262,-0.015717,-0.11734,-0.095369,-0.014801,-0.015717,0.059968,0.094759
-0.051728,-0.035859,0.035554,-0.068208,-0.029755,0.032807,-0.032807,0.085603
0.047761,-0.43381,0.098726,-0.023041,-0.0013733,0.021515,-0.022126,0.057221
0.11185,-0.54307,0.041962,-0.019684,-0.00076295,0.037995,0.049287,0.085298
-0.0050355,-0.098116,-0.078584,-0.073396,0.027008,0.031586,0.015106,-0.024872
-0.10636,0.23148,-0.048981,-0.057527,0.046845,0.027924,0.053254,-0.019684
0.0032044,0.10727,-0.08957,-0.041657,0.013886,0.064546,0.098116,0.032807
0.053864,0.013581,0.018769,-0.090486,0.04593,0.020905,0.027619,-0.066682
-0.06363,-0.090181,0.024567,-0.075532,0.041657,-0.016022,-0.059663,-0.13077
0.010529,-0.2855,0.0019837,-0.016938,0.023346,-0.014191,-0.077058,-0.13596
0.11612,-0.30594,-0.046235,-0.027619,0.039521,-0.0053407,-0.048371,-0.085908
0.049287,-0.12558,-0.14389,-0.075837,0.056916,-0.018158,-0.013581,-0.05539
-0.025788,0.14511,-0.18387,-0.15702,0.039521,-0.015412,0.0013733,-0.036469
-0.029755,0.083467,-0.10422,-0.13352,-0.019684,0.036774,0.059358,0.019074
-0.19821,0.32242,-0.13352,-0.11887,-0.047761,0.066377,0.16922,0.10422
-0.083467,0.12253,-0.10544,-0.085908,-0.062104,0.050202,0.17105,0.13718
-0.068818,0.11612,-0.10147,-0.095369,-0.015717,-0.019989,0.13107,0.072786
-0.052949,-0.065766,-0.036774,-0.062715,-0.01236,-0.057527,-0.20066,0.016632
-0.044709,-0.00015259,-0.032807,-0.062409,-0.0013733,-0.043488,-0.54215,0.041962
-0.010834,0.0099184,-0.013581,-0.03769,0.014191,0.030976,0.085298,0.061799
0.043183,-0.065461,-0.025483,-0.087739,0.032807,0.020294,0.15854,0.013886
0.0010681,-0.050813,-0.024567,-0.093538,0.04593,0.034638,0.029145,-0.016938
-0.068208,-0.10605,-0.0062562,-0.068208,-0.0022889,0.091402,0.1088,-0.0071717
-0.041962,-0.099641,-0.039826,-0.058137,-0.0053407,0.050202,0.057527,0.025177
-0.070649,-0.17624,0.048371,-0.0086976,0.025788,0.026093,0.047761,0.013275
-0.041962,-0.3621,0.024262,-0.0050355,0.034333,0.03006,0.048371,-0.018158
0.069429,-0.35843,-0.11246,-0.041352,0.041962,0.024567,0.075227,-0.018158
-0.014191,0.18143,-0.10483,-0.084993,0.037995,-0.0022889,0.016938,-0.074922
-0.097505,0.37797,-0.12161,-0.26627,0.0047303,-0.0096132,0.012055,-0.038911
0.10147,-0.059358,-0.082246,-0.11093,0.0065614,-0.017853,-0.016632,0.010529
0.035554,-0.075532,-0.12161,-0.061189,0.015412,-0.059663,-0.13657,0.0096132
-0.10971,0.02945,-0.15183,-0.10269,0.013581,-0.048371,-0.10452,0.002594
-0.1503,0.16617,-0.11765,-0.09659,-0.057527,0.022126,-0.011139,0.085603
-0.17685,0.24186,-0.070344,-0.075227,-0.055085,0.013275,-0.028534,0.11398
-0.059968,0.10269,0.034943,-0.10178,-0.017548,-0.0086976,0.031891,0.11643
0.042878,-0.2385,0.028229,-0.059358,0.0038148,-0.010834,0.037995,0.069123
0.097505,-0.57115,0.056611,0.032502,0.021515,-0.010834,0.030365,-0.018158
0.032197,-0.039826,-0.11032,-0.061494,0.05417,-0.0028992,0.013581,-0.037079
0.092927,-0.062104,-0.087434,-0.070344,0.027924,0.025177,0.049592,-0.021515
0.041352,-0.15427,0.017548,-0.10086,0.023651,0.02121,0.049592,-0.10239
-0.0096132,-0.103,-0.086519,-0.070649,0.038911,0.032197,-0.014191,-0.11521
0.044404,-0.076143,0.0099184,-0.024872,0.02884,0.030365,0.0019837,-0.06302
0.002594,-0.13657,0.0083925,-0.011139,0.051728,0.023957,0.087739,-0.091402
0.027008,-0.12436,-0.043793,-0.022431,0.053559,0.034028,0.20645,-0.022126
-0.06302,0.14817,-0.093538,-0.03006,0.03769,0.024567,0.091402,0.030365
-0.14817,0.20737,-0.15183,-0.15976,0.04715,-0.044099,-0.10941,0.032197
-0.21134,0.38621,-0.13138,-0.18082,-0.0056458,-0.078584,-0.35904,0.078279
-0.18021,0.11612,-0.12894,-0.15885,-0.10513,0.045319,-0.18936,0.10391
-0.19303,-0.019989,-0.070649,-0.12497,-0.09781,0.095064,0.19242,0.15305
-0.0065614,-0.2327,-0.11551,-0.073396,-0.058442,0.02884,0.085603,0.18173
-0.018463,0.047761,-0.076753,-0.07126,-0.0090028,-0.011749,0.047456,0.07126
-0.018158,0.079194,-0.0019837,-0.033417,0.0047303,0.016938,0.17563,0.0013733
-0.041352,0.040131,-0.025788,-0.01236,0.0071717,0.033417,0.26017,0.010834
-0.026703,-0.060273,-0.011749,-0.010224,0.045319,-0.0086976,0.11307,0.0074769
0.091402,-0.31907,0.023651,-0.038911,0.02945,-0.020294,-0.13016,-0.00015259
0.16922,-0.21592,-0.060578,-0.23331,0.050202,-0.045014,-0.3154,-0.055085
0.20157,-0.21958,0.0083925,-0.087739,0.039216,0.005951,-0.16281,-0.10758
0.10086,-0.29679,0.068513,0.077058,0.027008,0.06302,0.065156,-0.10605
-0.025177,-0.014801,-0.056611,0.024872,0.061494,-0.0047303,-0.0028992,-0.065156
-0.10239,0.087434,-0.090486,-0.12711,0.092012,-0.019684,0.0010681,-0.042878
-0.10941,-0.024262,-0.063935,-0.090486,0.0080873,0.050202,0.081636,0.013275
-0.011444,-0.090791,-0.098116,-0.096284,-0.010529,0.057527,0.097505,0.020905
0.035554,-0.0047303,-0.15183,-0.1265,0.0050355,0.012665,0.01297,0.025483
-0.092012,0.085908,-0.1091,-0.13779,-0.027008,0.020905,0.0050355,0.027314
-0.15579,0.10269,-0.079194,-0.22171,-0.050507,0.025177,0.032197,0.052338
-0.11734,0.11246,-0.103,-0.078584,-0.04654,0.034028,0.077668,0.11246
-0.13748,0.10269,-0.15457,-0.11093,-0.024872,0.010224,0.032197,0.12497
-0.087739,0.12222,-0.10544,-0.065766,-0.02884,-0.0032044,-0.0044251,0.11368
0.017243,-0.11246,0.020294,0.11704,-0.0068666,-0.053254,-0.039521,0.08011
0.016938,-0.19669,0.0206,0.063935,0.059968,-0.0383,-0.0053407,-0.010224
-0.044404,-0.049592,0.024872,-0.16403,0.090486,0.00076295,0.033112,-0.036469
0.009308,-0.10269,-0.0056458,-0.12345,0.0074769,0.036164,0.016938,-0.0050355
0.056611,-0.13291,-0.00015259,-0.10513,-0.024567,0.059663,0.068208,0.014191
0.027619,-0.12284,-0.092012,-0.090486,-0.002594,0.041657,0.024262,-0.045624
0.034028,-0.076448,-0.043183,-0.032197,-0.002594,0.036469,0.0071717,-0.065461
0.005951,0.0062562,0.002594,-0.048676,0.025483,0.019074,-0.014801,-0.098421
-0.00045777,-0.088045,-0.068818,-0.02945,0.07126,-0.018158,-0.074617,-0.096895
0.024262,-0.10971,-0.0795,-0.016022,0.062104,-0.022736,-0.11154,-0.059052
-0.05478,-0.0041199,-0.0795,-0.068818,0.083467,-0.059663,-0.14542,-0.082856
-0.070039,0.009308,-0.11093,-0.16678,0.046235,-0.039826,-0.015412,-0.018463
-0.14817,0.061494,-0.10117,-0.15885,-0.059663,0.023346,0.08835,0.075837
-0.0383,0.067597,-0.11154,-0.12955,-0.065766,-0.005951,0.14878,0.1207
-0.029755,0.04654,-0.085298,-0.1265,-0.039216,0.0041199,0.34989,0.10636
-0.067903,0.047761,-0.099641,-0.121,-0.057527,0.08896,0.31266,0.099641
-0.18692,0.12802,-0.076143,-0.065461,-0.06302,0.057527,0.35447,0.15549
-0.22629,-0.030365,0.016327,0.044709,-0.031281,0.024872,0.16037,0.12802
-0.038911,-0.1442,-0.026093,-0.065766,0.049287,-0.036469,-0.68132,0.068208
0.13901,-0.20584,0.039826,-0.013581,0.056306,-0.012665,-0.10208,0.02884
0.27146,-0.14298,0.040436,-0.048676,0.027008,-0.0074769,-0.55772,-0.13352
0.27665,-0.1622,-0.026398,-0.058442,0.10849,-0.027008,-0.40421,-0.14359
-0.018463,-0.19608,-0.032502,-0.068208,0.095979,0.040742,0.33463,-0.13596
-0.13626,-0.053864,-0.031891,-0.07248,0.039826,0.016632,0.079805,-0.079805
-0.012055,-0.036774,-0.063935,-0.038605,0.021515,-0.0022889,0.0068666,0.02945
0.033417,0.068513,-0.087434,-0.034638,0.023041,0.0022889,0.023346,-0.019684
0.020294,0.18265,-0.15152,-0.062409,0.0056458,0.013275,0.078279,-0.067903
-0.081331,0.11917,-0.12375,-0.12161,-0.0013733,0.0047303,0.061494,-0.026398
-0.13046,-0.013581,-0.11612,-0.1796,-0.016327,0.0047303,0.059663,0.031281
-0.21347,-0.12222,-0.0041199,-0.074617,-0.05478,0.016022,0.065766,0.082551
-0.11917,-0.12741,-0.1915,-0.12253,-0.034638,0.010224,0.074006,0.16342
-0.13565,0.057527,-0.11551,-0.23239,-0.058442,0.042878,0.099947,0.15
-0.11948,0.16129,-0.023041,-0.25772,-0.069734,0.034333,0.058442,0.067903
-0.0028992,0.078279,0.038911,0.02182,-0.049287,0.016327,-0.048676,0.0795
0.029755,-0.074006,0.028229,0.023957,-0.029755,0.062104,0.13382,0.065766
0.098421,-0.14298,-0.0056458,0.017243,0.014191,0.036469,0.34623,0.058137
0.09659,-0.26139,-0.078584,0.024567,0.089876,-0.034333,0.099947,-0.0080873
0.002594,-0.057832,-0.027619,-0.02121,0.13809,-0.073701,-0.0795,-0.10941
0.066072,-0.21042,-0.051728,0.002594,0.094148,-0.13046,-0.61387,-0.10636
0.036164,-0.14664,-0.033112,-0.071565,0.10269,-0.03769,-0.374,-0.13626
0.025483,-0.058137,-0.029145,-0.065156,0.045319,0.12009,0.42191,-0.061494
-0.12619,0.12528,-0.069123,-0.051728,-0.018158,0.062409,0.081331,-0.047761
-0.13962,0.0053407,-0.054475,-0.12589,-0.025788,0.013275,0.053254,-0.030365
-0.05478,-0.12558,-0.062409,-0.28092,-0.012665,0.026703,0.050202,0.023957
-0.086213,0.030365,-0.15732,-0.15488,0.0041199,0.0068666,-0.059052,-0.0047303
-0.077974,0.11429,-0.10422,-0.045014,-0.037385,0.011444,0.053864,0.10483
-0.066682,0.070039,-0.083162,-0.041352,-0.052644,-0.0074769,0.091707,0.14389
-0.092927,0.17533,-0.11673,-0.14054,-0.019074,0.0032044,0.10178,0.13169
-0.11215,0.13962,-0.11246,-0.043183,-0.0096132,0.027314,0.030365,0.13413
-0.12131,0.055695,-0.0972,-0.05539,-0.041352,0.018769,0.017548,0.13993
-0.045624,-0.12406,0.0086976,-0.067292,-0.029755,0.0062562,-0.013275,-0.00045777
0.05539,-0.1561,0.019989,-0.059358,-0.049287,0.027008,-0.043488,-0.026398
0.037385,-0.08957,-0.034028,0.0077821,-0.0206,0.03006,-0.067292,-0.043488
0.11856,-0.067903,0.0096132,-0.12528,0.09659,0.0019837,-0.13779,-0.074617
0.17075,-0.2739,0.039826,-0.18021,0.10605,0.024872,0.00045777,-0.071565
0.0010681,-0.20493,-0.018769,-0.016022,0.060578,0.0071717,0.065461,-0.11948
-0.1091,-0.028534,-0.055085,0.025788,0.067292,-0.019989,-0.028534,-0.10605
0.017853,-0.28305,-0.01236,0.018769,0.042267,0.018158,0.11063,-0.016632
-0.063325,-0.13138,-0.014191,0.034943,0.044404,0.016938,0.20401,-0.060883
-0.061494,0.05417,-0.12467,-0.068513,0.070344,-0.0099184,0.12009,-0.011139
0.055085,-0.050507,-0.092622,-0.2034,0.05417,-0.040131,-0.04593,0.037995
-0.014496,0.06424,-0.22171,-0.2031,-0.019074,-0.040131,-0.2031,0.087739
-0.068208,0.24582,-0.14237,-0.13169,-0.083772,0.043183,-0.028229,0.11978
0.0080873,0.076143,-0.07248,-0.10666,-0.08896,0.08835,0.08011,0.10788
-0.027008,0.091096,-0.085298,-0.11154,-0.067597,0.011139,-0.262,0.066072
-0.098116,0.1326,-0.086519,-0.099336,-0.043488,-0.014801,0.0071717,0.045624
-0.010529,-0.018769,-0.014801,-0.010834,-0.027008,0.013886,0.011139,0.035554
0.0035096,-0.12345,-0.027924,-0.041047,0.020905,0.013886,0.023041,-0.0047303
0.0028992,-0.095674,-0.0044251,-0.0028992,0.10422,-0.10666,-0.21622,-0.045014
-0.045014,-0.0047303,0.014496,-0.059358,0.053864,0.0099184,-0.018158,-0.038605
-0.073701,-0.034943,0.0038148,-0.075532,0.02945,0.051728,0.25101,-0.041657
0.010529,-0.19272,-0.050813,-0.076448,0.041352,0.032807,0.10391,0.0038148
0.077974,-0.29557,-0.0099184,-0.04715,0.029145,0.059052,0.095369,-0.010834
0.0013733,-0.065461,-0.024872,-0.03769,0.0071717,0.04654,0.06424,-0.018769
-0.047761,-0.14176,-0.03769,-0.033417,0.037995,-0.0071717,-0.0010681,-0.045014
-0.091096,0.010224,-0.13046,-0.12985,0.040131,-0.0074769,-0.025483,-0.030671
-0.10208,0.16464,-0.12711,-0.13657,0.013275,0.014801,0.0068666,-0.020294
-0.13352,0.30533,-0.16159,-0.10727,-0.020294,0.01297,-0.011139,-0.025177
-0.10513,0.16861,-0.093538,-0.095369,-0.043183,0.0062562,-0.019684,0.029755
-0.077058,-0.034638,-0.053254,-0.097505,-0.045624,-0.0074769,0.013581,0.073701
0.099031,-0.4097,-0.08072,-0.099947,-0.039521,-0.0080873,0.0096132,0.094453
-0.014801,-0.18753,-0.12314,-0.14298,-0.031586,0.0071717,0.023957,0.11154
-0.018158,-0.10544,0.015412,-0.069123,-0.022126,0.01236,0.024262,0.11154
-0.034943,-0.025483,0.016632,-0.031281,-0.04593,0.021515,0.046235,0.10849
-0.13016,0.09659,-0.049287,-0.077668,0.0206,-0.0041199,0.0056458,0.025788
-0.06363,-0.078584,-0.078889,-0.033112,0.025177,0.012665,0.031586,0.019379
0.02884,-0.11215,0.037385,-0.0044251,0.042878,0.017243,0.1564,-0.019379
0.04715,-0.056611,-0.025483,0.028534,0.11551,-0.024262,0.17044,-0.090791
0.063325,0.0047303,-0.040131,-0.022126,0.076448,0.012665,0.19364,-0.081636
0.15671,-0.11643,-0.018463,-0.17746,0.017243,0.0383,0.13504,-0.063935
0.065156,-0.12772,-0.030365,-0.12924,0.043488,-0.014801,-0.73838,-0.11002
-0.024262,-0.10941,-0.096284,-0.103,0.028229,0.043183,-0.58213,-0.053559
0.009308,0.051423,-0.08835,-0.093538,-0.032502,0.088655,0.33402,0.0065614
-0.10727,0.19516,-0.12772,-0.087739,-0.0032044,0.029145,0.10086,-0.033722
-0.19821,0.11032,-0.098421,-0.066987,0.014801,-0.049287,-0.01236,-0.041047
-0.10239,0.060273,-0.065766,-0.045624,-0.055695,-0.011139,-0.027619,0.085908
-0.0383,0.0032044,-0.11154,-0.024567,-0.039826,0.031281,0.10086,0.10575
0.031281,-0.19669,-0.049897,-0.095064,-0.00045777,-0.015412,0.12436,0.098421
-0.019684,-0.075532,-0.041047,-0.083772,0.0047303,-0.023651,0.061189,0.11002
-0.13962,0.035859,-0.074311,-0.12253,-0.0035096,-0.0016785,0.075532,0.077363
-0.10513,0.01236,-0.056611,-0.11368,-0.022431,0.035554,0.14633,0.11917
-0.074922,-0.014496,0.022736,-0.082856,0.002594,0.03006,0.11368,0.095369
-0.12314,0.061494,0.017243,-0.032197,0.02945,-0.011139,-0.10117,0.012055
-0.1265,0.21866,-0.027924,-0.083162,0.023041,0.013275,-0.044404,-0.00076295
-0.058747,-0.0047303,-0.0047303,-0.073396,0.0016785,0.062715,0.1384,0.043488
0.14847,-0.30564,-0.022431,0.0047303,-0.026398,0.084993,0.19181,0.009308
0.38437,-0.92058,-0.040436,0.0053407,0.027314,0.052338,0.31418,-0.024262
0.12192,-0.17197,-0.08896,-0.097505,0.121,-0.010834,0.39261,-0.18082
-0.0062562,0.24765,-0.10941,-0.086824,0.071565,0.014801,0.1735,-0.17899
-0.077668,0.23972,-0.12711,-0.094759,0.014191,-0.030976,-0.90227,-0.17685
-0.035859,-0.00076295,-0.15305,-0.06363,0.034943,-0.12039,-0.76768,-0.13046
-0.11521,0.041657,0.0056458,-0.14054,0.033417,-0.068208,-0.23636,-0.076753
-0.10391,-0.060578,-0.099641,-0.11704,-0.010834,0.050202,0.23087,0.051118
-0.14084,0.17777,-0.076753,-0.098726,-0.059358,-0.0032044,0.086213,0.13413
-0.086824,0.11002,-0.079194,-0.23026,-0.01236,-0.066987,-0.24094,0.13718
-0.063935,-0.034333,-0.11063,-0.021515,-0.049897,0.040742,0.061799,0.16281
-0.081331,-0.045624,-0.046235,0.034943,-0.053559,0.06302,0.25559,0.11795
-0.11124,-0.09659,-0.02182,-0.16068,0.031891,-0.011749,0.1384,0.079805
-0.016938,-0.13352,-0.010224,-0.045319,-0.051423,0.05539,0.19699,0.1207
0.027619,0.005951,0.0086976,-0.057221,-0.0032044,0.046235,0.13718,0.072786
0.063935,-0.068818,0.011749,-0.019379,0.023041,0.031586,-0.022736,-0.019074
0.11246,-0.16098,-0.024872,-0.0047303,0.037995,0.044404,0.034333,-0.047456
0.08957,-0.18753,-0.00076295,-0.019379,0.08011,0.0099184,0.059052,-0.071565
0.051423,-0.12406,-0.05478,-0.094759,0.098116,-0.016022,0.024262,-0.057221
-0.0972,-0.068513,-0.04654,-0.072175,0.049287,0.0041199,0.041352,-0.078889
-0.052949,-0.026093,-0.032197,-0.064546,-0.010834,0.018158,-0.041047,-0.08011
0.015717,-0.059968,-0.076448,-0.059663,-0.015106,-0.0035096,-0.02884,-0.049592
-0.090181,0.15549,-0.14969,-0.2034,-0.0019837,-0.052949,-0.12161,-0.072175
-0.087129,0.094453,-0.14939,-0.23423,-0.0028992,-0.0086976,-0.025788,-0.014801
-0.083772,0.047761,-0.12772,-0.061494,-0.0096132,0.0032044,0.063325,0.082551
-0.10819,-0.03006,-0.14328,-0.059052,-0.025483,-0.0056458,0.01297,0.073701
-0.035248,0.0096132,-0.084077,-0.02884,-0.053864,0.019989,0.034028,0.090181
-0.059052,0.25986,-0.0383,-0.12314,-0.017548,-0.0050355,-0.0028992,0.049287
-0.084993,0.16434,-0.0080873,-0.091096,0.009308,-0.023041,-0.022126,0.030365
-0.12985,-0.041962,0.048371,-0.0206,-0.011139,0.02121,0.043793,0.086213
-0.065766,-0.35752,0.0083925,-0.013581,-0.00045777,0.025177,0.029145,0.051423
0.12467,-0.39445,0.0019837,0.00045777,0.030976,0.011139,0.018158,-0.0013733
0.11978,-0.12589,-0.037995,-0.064851,0.10361,-0.014801,-0.013581,-0.090791
0.21256,-0.19028,-0.045624,-0.036774,0.065766,0.010224,-0.079805,-0.10239
0.13931,-0.034638,-0.027924,-0.11246,0.009308,0.041352,-0.085908,-0.059358
-0.041962,-0.042267,-0.038605,-0.068208,-0.010529,0.050507,-0.035248,-0.050813
-0.058137,-0.094148,-0.076448,-0.028229,-0.022126,0.031281,-0.023041,-0.034943
-0.066987,0.076143,-0.1091,-0.11704,0.030365,-0.010834,0.050507,-0.009308
-0.047761,0.045319,-0.12161,-0.17777,0.038911,0.016632,0.21805,0.019074
-0.10971,0.11154,-0.096895,-0.098421,0.019074,0.02884,0.32151,0.053254
-0.07126,0.060273,-0.051118,0.021515,-0.0056458,-0.0056458,0.21653,0.10758
-0.1973,0.061189,-0.10208,-0.11124,0.036774,-0.027008,0.12192,0.041352
-0.098421,-0.11276,-0.066682,-0.16983,-0.012665,0.027008,0.023957,0.10605
-0.04654,0.044099,-0.15122,-0.12894,-0.059358,-0.052033,-0.6685,0.13809
-0.030976,0.067903,-0.054475,-0.10575,-0.04715,0.0099184,-0.23514,0.10666
-0.034638,-0.14572,0.066682,-0.040131,-0.055695,0.090791,0.31296,0.14603
-0.0206,-0.12619,-0.030365,0.059968,-0.033112,0.058442,0.103,0.011444
-0.00015259,-0.040131,-0.10025,-0.086519,0.034333,0.031586,0.031586,-0.069123
0.023346,-0.064546,-0.037995,0.009308,0.032197,-0.0032044,-0.077974,-0.11368
0.029755,-0.082246,0.059052,-0.043183,0.035554,-0.086519,-0.37308,-0.19577
0.041657,-0.055695,-0.022736,-0.11032,0.10758,-0.099947,-0.32761,-0.15244
0.044404,-0.00015259,0.020905,-0.21897,0.070344,0.037995,0.30167,-0.029145
0.030976,-0.036774,-0.032197,-0.046235,0.066072,0.033112,0.31022,0.034333
0.046235,-0.049897,-0.10269,-0.0068666,0.058442,0.041657,0.076753,0.060273
-0.0050355,-0.19455,-0.1387,-0.065461,0.018158,0.034638,0.027314,-0.023346
-0.040742,-0.13962,-0.077058,-0.093538,-0.015717,0.00076295,-0.025483,-0.065156
-0.12314,0.04593,-0.13169,-0.12253,-0.0035096,-0.026398,-0.041962,-0.047761
-0.12009,0.075532,-0.095064,-0.11978,-0.033417,-0.0050355,-0.010529,0.025177
-0.21012,0.28061,-0.12863,-0.16464,-0.068818,0.032502,0.026093,0.11398
-0.22507,0.3032,-0.092317,-0.11521,-0.10391,0.052949,0.059663,0.14511
-0.062715,0.069734,-0.074922,-0.069429,-0.098421,0.048066,0.1091,0.18265
0.045624,-0.18479,0.02945,-0.016632,-0.049287,0.030976,0.037079,0.1323
0.12772,-0.50095,0.025788,0.033112,0.036774,-0.0028992,0.094759,0.037995
0.069123,-0.12222,-0.055695,-0.018158,0.088655,-0.013275,0.11673,-0.053864
0.02884,0.010529,0.016022,-0.076448,0.052338,0.0080873,0.0047303,-0.045624
-0.063325,-0.078584,-0.034638,-0.091096,0.031891,0.0071717,-0.168,-0.01236
0.061189,-0.05478,-0.052338,-0.11521,0.049897,-0.063935,-0.35782,-0.024567
0.10697,-0.037385,-0.017853,-0.024262,0.061494,-0.021515,-0.15061,-0.045624
0.083467,-0.052033,-0.0019837,-0.034333,0.059358,0.062104,0.22202,-0.10971
0.0047303,-0.11582,-0.015717,-0.062409,0.029145,0.035248,0.10971,-0.0972
-0.050813,-0.059968,-0.1384,-0.11124,0.016938,0.0206,-0.0074769,-0.041352
-0.098421,0.14389,-0.13901,-0.085908,-0.0050355,0.020294,0.038911,-0.010224
-0.18662,0.019684,-0.084077,-0.10117,-0.028534,0.021515,0.0050355,0.024872
-0.1564,0.0019837,-0.1091,-0.12039,-0.0206,0.01236,0.0013733,0.059663
-0.18173,0.049897,-0.12863,-0.096284,-0.029755,0.0083925,0.015717,0.11795
-0.12863,0.24765,-0.13993,-0.11307,-0.030976,-0.0056458,0.03006,0.10269
-0.029755,0.24674,-0.097505,-0.15915,-0.030671,0.005951,0.077974,0.066682
0.030365,-0.072175,0.032502,-0.1033,-0.050813,0.050813,0.1207,-0.0050355
0.083467,-0.50065,0.035859,0.035554,-0.051423,0.045014,0.16953,0.033417
0.067903,-0.392,0.0077821,0.017853,0.037995,-0.030365,0.02945,-0.0065614
-0.015106,0.056001,-0.060273,-0.095064,0.1088,-0.12741,-0.26719,-0.067903
-0.016938,-0.0086976,-0.027619,-0.083162,0.0068666,-0.066377,-0.36454,0.016938
-0.025788,0.019379,0.0062562,-0.051118,0.0032044,-0.0053407,-0.12558,0.035859
0.047456,-0.27237,-0.021515,-0.051423,0.078279,0.065156,0.24186,0.040436
0.024872,-0.1677,-0.040742,-0.070649,0.067903,0.033417,0.18692,-0.018158
0.045319,-0.10361,-0.07187,-0.031281,0.015717,0.010834,0.13931,-0.038911
0.0035096,-0.051728,-0.079194,-0.074617,0.029755,0.017243,-0.059663,-0.088045
-0.041047,-0.02945,-0.078889,-0.08835,0.037385,0.02884,-0.070649,-0.099947
-0.08835,0.090486,-0.11032,-0.10941,-0.011139,0.014801,0.042878,-0.049287
-0.098421,0.16526,-0.11978,-0.10636,-0.02884,0.0028992,-0.009308,-0.0013733
-0.078279,0.12833,-0.1207,-0.09659,-0.02945,0.034943,0.022126,0.069429
-0.11978,0.13352,-0.10117,-0.13474,-0.017548,-0.0041199,0.02884,0.094148
-0.11978,-0.062104,-0.025788,-0.082246,-0.02945,0.016938,0.049592,0.11032
-0.08896,0.0013733,-0.092012,-0.103,-0.0383,0.024872,0.04715,0.10788
-0.084077,-0.016022,-0.062409,-0.11093,-0.019684,0.0065614,0.017548,0.088045
-0.031586,-0.025483,-0.095979,-0.069429,-0.038605,0.027314,0.04593,0.088045
0.013886,0.026398,-0.033112,-0.074617,-0.0062562,0.03006,0.046235,0.072786
0.10605,-0.11093,0.033417,-0.031586,0.025788,0.035554,0.015412,0.041047
0.06363,-0.16587,0.018158,-0.070954,0.039216,0.030365,-0.010224,-0.0071717
0.039826,-0.13138,0.014801,-0.065461,0.047761,0.026093,-0.012055,-0.058137
-0.0068666,-0.12497,-0.01297,-0.00045777,0.025788,0.051118,0.049897,-0.027314
0.014191,-0.11368,-0.024567,0.022736,0.066377,-0.009308,0.03769,-0.034333
0.036774,0.0206,-0.082856,-0.041047,0.090181,-0.027314,-0.020294,-0.081025
0.011139,0.10636,-0.10025,-0.0795,0.067903,-0.014191,-0.045624,-0.10147
-0.013581,-0.13565,-0.016938,-0.092927,0.027924,-0.010224,-0.017243,-0.093233
0.012055,-0.13779,-0.12924,-0.092927,0.034943,-0.02884,-0.033722,-0.073396
-0.028229,0.046235,-0.1323,-0.13657,0.019989,-0.057221,-0.15671,-0.02945
-0.087434,0.15152,-0.13352,-0.15366,-0.024872,-0.011139,-0.0047303,0.026093
-0.20249,0.12222,-0.11154,-0.14176,-0.0795,0.032197,0.050507,0.093843
-0.13962,-0.00045777,-0.13962,-0.1384,-0.08072,0.035554,0.046235,0.1442
-0.11246,0.022736,-0.085908,-0.10086,-0.064851,0.018463,0.054475,0.14878
-0.056001,-0.066987,0.12131,-0.066682,-0.058747,0.034638,0.067292,0.10361
-0.059968,-0.19577,0.046845,0.036774,-0.024567,0.0010681,0.026703,0.015717
0.014191,-0.26993,-0.048676,0.033417,0.04593,-0.0071717,-0.0022889,-0.014801
0.1268,-0.14847,-0.070039,-0.06363,0.094759,0.0044251,0.11032,-0.025788
0.17105,-0.11398,0.00015259,-0.077668,0.063935,0.027924,0.14694,-0.086213
0.15122,-0.022126,0.016022,-0.045014,0.031891,0.046235,0.014801,-0.085603
0.018158,-0.0065614,-0.023041,-0.023041,0.044404,-0.02182,-0.18235,-0.094453
-0.064546,-0.0080873,-0.06302,0.0071717,0.055695,-0.06424,-0.42771,-0.095979
-0.1146,0.019074,-0.07187,-0.082551,0.058137,0.027008,-0.04654,-0.070954
-0.013581,-0.12802,-0.048981,-0.098726,0.057527,0.036164,0.20249,0.013581
-0.04654,-0.052949,-0.15488,-0.14542,0.0074769,0.016022,0.029755,0.0086976
-0.079194,0.045319,-0.1738,-0.12528,-0.009308,0.031586,0.07248,0.048066
-0.14145,0.14542,-0.077363,-0.11398,-0.032502,-0.00015259,0.059358,0.081331
-0.13382,0.14389,-0.12772,-0.1326,-0.022431,-0.024262,0.0099184,0.092012
-0.086824,0.085908,-0.066682,-0.11063,-0.06363,0.009308,0.062104,0.12802
-0.0972,0.03006,-0.076448,-0.059052,-0.065156,0.033417,0.21561,0.073396
-0.10605,-0.068208,0.020294,-0.054475,-0.041657,0.026398,0.14389,0.052949
-0.053254,-0.088045,-0.039826,-0.052644,-0.035554,-0.0041199,-0.061189,0.061799
-0.0022889,-0.041657,-0.066377,-0.059052,-0.010529,-0.01297,-0.26932,0.036774
0.041657,0.00045777,-0.060883,-0.21164,-0.022126,-0.0038148,-0.36423,0.026703
-0.051728,-0.014496,-0.0044251,-0.1384,-0.011139,0.046845,0.041352,0.0065614
-0.13046,-0.024567,0.025788,0.016022,0.04593,0.016022,0.22324,0.0074769
-0.066072,-0.052949,-0.00076295,-0.037385,0.10208,-0.0383,0.052949,0.010529
0.058442,-0.31998,0.07126,0.014496,0.07187,-0.0099184,0.17411,-0.030976
0.16464,-0.35966,-0.13657,0.0019837,0.060578,0.043183,0.17105,-0.066682
0.27573,-0.2855,-0.062409,-0.053254,0.074617,0.014191,-0.011139,-0.13626
0.13993,0.034333,-0.075837,-0.095369,0.025483,-0.0080873,-0.081941,-0.056916
-0.00015259,0.080415,-0.067903,-0.14054,-0.030976,0.020294,-0.041352,0.043488
0.039521,0.1973,-0.15579,-0.14176,-0.018769,0.029145,-0.045014,0.044404
-0.11368,0.33249,-0.0972,-0.086824,-0.015412,0.042573,0.067903,0.036774
-0.22538,-0.0019837,-0.16922,-0.15702,-0.0206,-0.013581,0.02884,0.015106
-0.17777,0.017243,-0.08896,-0.11124,-0.025483,-0.020294,-0.010834,0.042878
0.0074769,-0.33371,-0.061799,0.011444,-0.10727,0.065766,0.041047,0.082551
0.087739,-0.1561,0.06424,0.08835,0.019379,-0.0099184,-0.017243,0.029145
0.025788,-0.14969,-0.032502,-0.02945,0.11368,-0.065156,-0.088045,-0.048676
-0.084382,0.0206,-0.052644,-0.13687,0.073091,-0.044404,-0.070954,-0.051728
-0.086824,-0.016022,-0.017548,-0.12467,-0.002594,0.002594,0.0065614,0.026703
-0.064851,0.022736,-0.013581,-0.09659,-0.0383,0.045624,0.083772,0.023346
-0.04715,0.0083925,-0.016327,-0.08835,-0.032502,0.083467,0.14328,0.0065614
0.046235,-0.21195,-0.046845,-0.068208,-0.018463,0.070649,0.18021,-0.064546
0.11643,-0.30198,0.019684,0.084688,0.023041,0.03006,-0.093843,-0.075532
0.052033,0.0013733,-0.052338,-0.078584,0.11154,-0.034333,-0.4445,-0.099947
-0.10513,0.26261,-0.11978,-0.15396,0.12192,-0.019989,0.088045,-0.0795
-0.15763,0.16434,-0.09659,-0.12039,0.017853,-0.036469,0.090791,0.017853
-0.15854,0.092317,-0.10819,-0.1033,-0.022126,0.0010681,0.094759,0.053254
-0.08835,-0.1265,-0.10025,-0.10788,-0.059358,0.082551,0.17716,0.092317
-0.064546,-0.17014,-0.1207,-0.15091,-0.034638,0.010834,-0.051118,0.13901
0.009308,-0.11765,-0.069123,-0.068208,-0.077668,0.036469,0.037385,0.098116
-0.043183,0.04593,-0.070954,-0.0206,-0.016632,-0.018769,0.19944,0.0028992
-0.10025,0.21744,-0.13718,-0.12558,0.045319,-0.065461,0.094148,-0.00045777
-0.045624,0.097505,-0.078279,-0.1146,-0.0044251,-0.030365,0.17258,0.076753
-0.039826,-0.0383,0.019989,-0.073091,-0.032197,0.037995,0.13626,0.082856
0.036164,-0.327,-0.013886,-0.037385,-0.031281,0.023041,-0.55436,0.057221
-0.037079,0.0038148,-0.044404,-0.041047,0.016022,0.04715,0.29892,0.045624
-0.03769,0.16587,-0.0041199,-0.0032044,0.037079,0.086519,0.7747,0.025177
-0.074922,0.042267,0.091096,-0.053559,0.0028992,0.023346,-0.18662,-0.0096132
0.031281,-0.30655,0.0074769,-0.14694,0.050202,-0.067903,-1.1412,-0.041047
0.14084,-0.32364,-0.081331,-0.016327,0.08835,-0.059052,-0.34226,-0.041657
0.098421,-0.13413,-0.077363,-0.036774,0.059358,-0.0096132,-0.24674,-0.13352
0.041047,-0.23941,-0.086824,-0.08896,0.041962,0.040742,0.1561,-0.15274
-0.061189,0.12985,-0.14847,-0.12314,0.064546,-0.035554,0.34409,-0.10727
-0.11002,0.24826,-0.10147,-0.10483,0.0068666,-0.039216,-0.099031,-0.011139
-0.018769,0.0047303,-0.083162,-0.0028992,-0.051728,0.019989,-0.094453,0.057527
-0.019684,0.11368,-0.15702,-0.097505,-0.02884,0.045014,0.23606,0.13016
-0.11551,0.11582,-0.05478,-0.15763,0.013886,-0.0013733,0.25193,0.11704
-0.1384,0.044099,-0.1207,-0.18326,-0.052644,-0.0056458,0.052949,0.11887
-0.13443,-0.023346,-0.034028,-0.2031,-0.042878,-0.022126,0.08011,0.10575
-0.13046,-0.24094,0.037385,-0.083467,-0.048676,0.016938,0.059052,0.04593
-0.018463,-0.35874,-0.068818,0.0077821,-0.069123,0.077668,0.045014,0.040131
0.062409,-0.087739,0.040436,0.049592,0.005951,0.052644,0.08957,0.0086976
0.075532,-0.017853,-0.039826,0.058747,0.059358,0.030365,0.071565,-0.024872
0.094759,0.023957,-0.050202,-0.019074,0.075227,0.019074,0.009308,-0.0383
0.15152,-0.0083925,-0.051118,-0.043488,0.067903,-0.0090028,-0.018463,-0.087434
0.091402,-0.090791,0.068818,-0.066377,0.05417,-0.0019837,-0.057832,-0.14206
0.03769,-0.20493,-0.049897,-0.072786,0.051728,0.0010681,-0.032502,-0.11002
-0.049592,-0.050507,-0.086213,-0.12467,0.060578,-0.013581,-0.025788,-0.094148
-0.12924,0.080415,-0.13077,-0.12375,0.03769,-0.010224,-0.040742,-0.052949
-0.23301,0.12985,-0.068513,-0.06424,-0.009308,-0.025788,-0.058747,0.0206
-0.15488,0.15274,-0.14084,-0.11643,0.024872,-0.043183,-0.069734,-0.010834
-0.12161,0.14939,-0.10147,-0.10086,-0.024262,0.026398,0.14115,0.073396
-0.076143,0.079805,-0.13565,-0.13199,-0.065461,0.022736,0.087739,0.1088
0.055085,-0.0206,-0.098421,-0.13504,-0.072786,0.024872,0.048371,0.15885
-0.017548,0.053864,-0.11551,-0.12528,-0.06363,0.023346,0.0795,0.15671
-0.012665,-0.17777,-0.058442,-0.11124,-0.0206,0.024872,0.121,0.12039
0.034943,-0.24674,0.018463,-0.15763,0.025483,0.0077821,0.06363,0.072786
-0.075227,-0.12497,0.056916,-0.028229,0.031586,0.02945,0.017853,0.037385
-0.11032,-0.20981,0.064851,0.095674,0.010834,0.080415,0.066682,0.036164
-0.025483,-0.064546,-0.033722,0.02182,0.053864,0.037079,0.029145,0.023957
-0.059968,0.16464,-0.057832,-0.028534,0.061799,-0.0096132,-0.042573,-0.042573
0.10025,-0.07187,-0.016632,-0.0096132,0.023651,0.0044251,-0.052033,-0.074006
0.19638,-0.18814,-0.024872,-0.058747,0.0068666,0.0013733,-0.056001,-0.065766
0.13809,-0.32059,-0.069123,-0.091096,0.060273,0.0013733,-0.051118,-0.12375
0.014191,-0.00076295,-0.064546,-0.15122,0.071565,-0.011749,-0.0083925,-0.13809
-0.036469,0.07187,-0.10697,-0.25895,0.02182,-0.035859,-0.13962,-0.093233
-0.099336,0.072175,-0.10605,-0.067597,0.00076295,-0.020905,-0.14206,-0.027008
-0.11246,-0.086824,-0.11612,-0.027314,-0.002594,-0.0035096,0.047761,0.039826
-0.16281,0.010224,-0.1326,-0.12558,-0.020905,-0.0074769,0.057832,0.067292
-0.076143,0.040742,-0.12467,-0.080415,-0.066072,0.019379,0.059358,0.10788
-0.068208,0.04654,-0.081331,-0.10849,-0.059358,0.024567,0.051423,0.084077
-0.10727,0.055085,-0.062715,-0.12528,-0.039216,0.010224,-0.0062562,0.068513
-0.050813,-0.050202,-0.0090028,-0.060273,-0.053864,0.050507,0.044099,0.12772
-0.0019837,-0.068208,0.0041199,-0.0096132,-0.009308,0.021515,0.042267,0.047761
0.0096132,-0.030976,-0.041962,-0.052338,0.043488,-0.0053407,0.021515,0.011749
0.10269,-0.032807,-0.0383,-0.08072,0.06302,0.017243,0.070649,0.030976
0.12009,-0.13199,0.047456,-0.05478,0.040436,0.0383,0.1149,0.015717
-0.014191,-0.14847,0.00015259,-0.0047303,0.05417,0.014496,0.011139,-0.064851
-0.08835,0.026703,-0.029145,-0.10697,0.053864,-0.00076295,-0.058137,-0.071565
-0.014191,-0.077668,-0.031891,-0.034638,0.013886,0.027314,-0.024262,-0.044709
-0.053254,0.081941,-0.062409,-0.013275,0.038911,0.0071717,-0.026398,-0.064546
0.0010681,-0.16861,-0.018158,0.062104,0.037995,-0.0016785,-0.018769,-0.073396
0.031586,-0.089876,-0.14572,-0.099031,0.039521,-0.011139,0.0056458,-0.023346
0.02121,-0.050813,-0.12711,-0.13382,0.052033,-0.039216,0.011139,-0.016327
-0.10575,0.065461,-0.13687,-0.14359,-0.0044251,-0.030365,-0.0022889,0.02945
-0.10605,0.13169,-0.10849,-0.16709,-0.081941,0.012055,-0.0090028,0.089876
-0.10239,0.10971,-0.17502,-0.15885,-0.074006,0.028534,-0.0206,0.11215
-0.16587,0.14542,-0.061799,-0.17777,-0.020905,0.027924,0.0096132,0.081331
-0.12528,-0.13046,0.038911,-0.20493,-0.029145,0.036469,0.041352,0.10788
-0.06363,-0.27451,-0.068818,0.38712,-0.092012,0.01297,0.076448,0.15457
-0.071565,-0.066987,-0.073396,-0.23087,0.027008,-0.0099184,0.13687,0.098116
0.016632,0.052644,-0.0099184,-0.20127,0.049287,0.10452,0.11276,0.062104
0.15244,-0.14572,0.11276,0.0090028,-0.017243,0.058442,-0.011139,0.0080873
0.11185,-0.088655,0.012665,0.044099,0.073701,-0.034333,-0.10422,-0.1561
0.061494,-0.06424,-0.052033,0.012665,0.084688,-0.021515,-0.09781,-0.17807
-0.00015259,-0.01297,-0.053864,-0.058442,0.13199,-0.029145,-0.061799,-0.13657
-0.045624,-0.052338,0.00045777,-0.076753,0.047456,0.036774,0.021515,-0.062715
-0.077058,-0.1735,-0.088655,-0.12863,0.0068666,0.052338,0.17136,-0.024262
-0.010529,-0.20096,-0.13321,0.0068666,-0.0074769,0.050507,0.23301,0.0032044
0.018769,-0.056001,-0.168,-0.11582,-0.019074,0.034943,0.056001,0.0096132
-0.0044251,-0.015412,-0.045014,-0.092927,0.052949,-0.082246,-0.22141,-0.022736
-0.06302,0.17258,-0.0016785,-0.062409,0.036774,-0.089876,-0.3801,-0.053559
-0.084382,0.08957,-0.096284,-0.082856,-0.02884,0.028534,0.075837,0.027619
-0.028534,0.034638,-0.077058,-0.10697,-0.041352,-0.0019837,0.23636,0.12863
-0.072786,0.061799,-0.16892,-0.10483,-0.049287,-0.010224,-0.0206,0.12711
-0.06363,0.10147,-0.15,-0.1387,-0.034333,-0.027314,-0.262,0.076753
-0.045014,0.0053407,-0.02182,-0.23117,-0.028229,0.0080873,-0.14237,0.074617
-0.013581,-0.1268,0.044709,-0.065156,-0.0019837,0.039521,0.12772,0.002594
-0.002594,-0.052338,0.016022,0.0099184,0.0038148,0.024872,0.036164,-0.012055
-0.05539,-0.06363,0.0065614,-0.023651,0.009308,0.044099,0.087739,0.0047303
-0.036469,-0.21103,0.0062562,-0.027008,0.01297,0.043183,0.11398,0.026093
-0.018769,-0.21897,-0.0086976,0.009308,0.02121,0.032502,0.1323,0.016022
0.0010681,-0.16892,-0.019684,-0.033417,0.067292,0.019989,0.14328,-0.010224
-0.026703,0.083162,-0.10727,-0.10269,0.065461,0.014496,0.16098,-0.0050355
0.022126,0.10208,-0.078279,-0.11521,0.037079,0.027924,0.15854,-0.032502
0.005951,-0.040131,-0.073091,-0.09659,0.0065614,0.0032044,-0.34226,-0.076753
0.010529,-0.048066,-0.08957,-0.067292,0.0086976,-0.02121,-0.46067,-0.073091
-0.034333,0.11948,-0.15396,-0.075532,0.015412,-0.0077821,0.1387,0.005951
-0.0206,0.031891,-0.12985,-0.13565,-0.020294,0.026398,0.095369,0.033722
-0.1033,-0.12833,-0.031586,-0.063325,-0.043488,0.033417,0.076448,0.057832
-0.018769,0.065156,-0.16159,-0.099031,-0.023041,-0.011444,-0.026398,0.074311
-0.067903,0.073701,-0.082551,-0.052949,-0.0035096,-0.02884,-0.10636,0.045319
-0.092317,0.035248,-0.026703,-0.026093,-0.017548,0.009308,0.042878,0.031281
-0.067292,-0.014496,-0.018158,-0.10239,-0.01297,0.01297,0.19974,0.02884
-0.051118,-0.038911,-0.023651,-0.22477,0.020905,-0.00015259,0.35477,0.019074
0.042878,-0.20005,0.011444,-0.10269,0.0077821,0.062409,0.40909,0.049287
0.027924,-0.26474,-0.015412,0.013275,0.01297,0.040742,0.25345,0.018158
-0.033112,-0.11826,-0.0080873,0.0068666,0.063325,-0.10086,-0.75242,-0.07187
-0.062104,-0.17258,0.023957,-0.0083925,0.04715,-0.057527,-0.9041,-0.068208
-0.21439,0.20462,-0.026703,-0.083772,0.070039,0.0038148,0.27573,-0.017548
-0.051118,0.10239,-0.010224,-0.029145,0.0047303,0.042878,0.10544,0.069123
-0.024872,0.0032044,-0.069123,-0.13138,-0.030365,0.095064,0.19944,0.098421
0.13443,-0.31357,-0.10941,-0.067597,0.053559,0.033417,0.1973,0.051728
0.23148,-0.24704,-0.13046,0.034638,0.13321,-0.056001,0.070344,0.027314
0.014801,-0.20279,-0.14847,-0.18296,0.054475,-0.011139,0.069123,0.00045777
-0.10452,0.33951,-0.16281,-0.1912,-0.041657,0.01297,0.036164,0.03769
-0.14572,0.28428,-0.11704,-0.15732,-0.078279,0.025483,-0.0019837,0.034333
-0.26413,0.29801,-0.092317,-0.10269,-0.10697,0.057221,-0.021515,0.027008
-0.0074769,-0.15885,-0.048676,-0.064851,-0.091402,0.021515,-0.02945,0.037079
0.096895,-0.090486,-0.00045777,-0.040436,-0.018463,-0.0038148,-0.025177,0.026703
0.031586,-0.16434,0.002594,-0.002594,0.023041,0.0077821,0.0053407,-0.043793
0.085603,-0.084382,-0.072786,-0.042573,0.043183,-0.015412,-0.010529,-0.049897
0.0086976,-0.08011,-0.060578,-0.068513,0.041962,0.021515,0.058137,-0.059968
-0.0022889,-0.084688,0.095979,-0.024567,0.031586,0.024567,0.034943,-0.041047
0.0086976,-0.02884,-0.020905,-0.11551,0.016022,0.012665,0.069734,0.0032044
0.046235,-0.19028,0.032502,-0.10452,0.033722,0.02884,0.087434,-0.0090028
0.010834,-0.25437,0.10666,0.0028992,0.067292,-0.035859,-0.03769,-0.049287
-0.050813,-0.11856,-0.12741,-0.066682,0.084077,-0.0074769,-0.012665,-0.096895
-0.15702,0.08011,-0.16739,-0.08957,0.027924,0.005951,0.081331,-0.043183
-0.14633,0.25254,-0.17136,-0.0074769,-0.019379,0.036164,0.17929,0.03769
-0.11521,0.11551,-0.11643,-0.11887,0.0096132,-0.0010681,0.13993,0.053864
-0.07187,-0.00076295,-0.10086,-0.13748,0.037995,-0.066072,-0.19913,0.039826
-0.11765,0.034028,-0.12711,-0.14542,-0.022126,0.0071717,-0.57237,0.11765
-0.0086976,0.044404,-0.15,-0.20951,-0.037079,0.061189,0.12406,0.20859
-0.11826,0.017853,-0.099641,-0.18082,-0.089876,0.061189,0.24338,0.12863
-0.0795,-0.0019837,0.014496,-0.11337,-0.0972,0.058442,0.035248,0.068513
0.0056458,-0.0383,-0.010529,0.035248,-0.062104,0.061494,0.10269,0.069123
0.11826,-0.22995,0.11673,0.17929,0.016022,0.044709,0.23575,0.017243
0.19394,-0.30777,-0.034943,0.14237,0.13016,-0.04715,0.059052,-0.069429
0.077668,-0.11551,-0.030976,-0.068513,0.17044,-0.096284,-0.0795,-0.13626
-0.039216,0.059663,-0.0053407,-0.14145,0.092317,-0.050202,-0.13779,-0.13321
0.049287,-0.17441,0.018769,-0.10483,0.02182,0.059663,-0.14603,-0.03769
0.061494,-0.25345,-0.019684,-0.06424,0.013581,0.068818,0.11917,-0.0080873
0.029145,0.11246,-0.10483,-0.11673,0.0016785,-0.0071717,-0.18692,-0.056611
-0.0086976,-0.16159,-0.060578,-0.087739,0.017243,-0.041352,-0.26261,-0.053864
-0.085603,-0.016022,-0.092622,-0.10483,-0.0035096,0.032502,0.08835,-0.027008
-0.22446,0.10849,-0.11734,-0.13046,-0.017243,0.023041,0.11856,0.023041
-0.14878,0.039521,-0.18296,-0.11856,-0.03769,0.02945,0.068208,0.11154
-0.082246,0.27359,-0.15702,-0.14328,-0.034943,0.005951,0.07248,0.13687
-0.093538,0.067292,-0.088045,-0.121,-0.035248,0.0086976,0.023346,0.050202
-0.062104,0.038605,-0.11673,-0.086519,-0.024872,0.0022889,-0.015106,0.0028992
0.020905,-0.013886,-0.0206,-0.084382,-0.014801,-0.005951,0.012055,0.049287
0.026703,-0.10391,0.013886,-0.087434,-0.010834,0.016938,0.029755,0.02121
-0.015412,-0.14359,-0.01297,-0.074922,-0.002594,0.0090028,0.051728,0.0086976
-0.029145,-0.055695,-0.00015259,-0.040131,-0.0090028,0.0053407,0.059358,0.016022
-0.13321,0.0047303,-0.034028,-0.076753,0.013581,0.0062562,0.016022,-0.022126
-0.044404,0.009308,-0.002594,-0.041352,0.027314,0.019989,0.0047303,-0.0096132
0.072175,-0.10056,-0.01297,0.014496,0.040131,0.02945,0.0016785,-0.034943
0.076753,-0.23545,0.0083925,0.011749,0.058137,0.048371,-0.0068666,-0.052644
0.058442,-0.094453,0.038605,-0.032197,0.060273,0.044099,0.01297,-0.036774
-0.038911,0.0086976,-0.11429,-0.11521,0.069734,-0.009308,-0.010529,-0.07187
0.015106,-0.18875,-0.058442,-0.009308,0.027008,0.0022889,0.021515,-0.015412
-0.052033,-0.076143,-0.097505,-0.16373,0.055695,-0.012665,0.047761,-0.038911
-0.051118,0.19516,-0.12314,-0.13169,0.039826,-0.037995,-0.025483,-0.031891
-0.096284,0.10849,-0.12833,-0.086824,-0.058747,0.016938,0.023957,0.065461
-0.16068,0.13657,-0.11551,-0.067597,-0.016327,0.018769,0.051118,0.082856
-0.0035096,-0.16892,-0.11704,-0.08835,0.015412,-0.049592,-0.11765,0.1387
-0.10758,0.12802,-0.078584,-0.12436,0.0047303,-0.041962,0.081636,0.11551
-0.048371,-0.010529,-0.095369,-0.048981,-0.048371,0.009308,0.0077821,0.12284
-0.010224,0.0041199,-0.13718,-0.10636,-0.049287,0.013275,-0.053864,0.12497
0.0053407,-0.084382,-0.02884,-0.11093,-0.064546,0.070954,0.10758,0.041962
-0.11734,0.14969,0.016022,-0.11795,-0.042573,0.043488,0.066377,-0.018158
-0.08072,-0.14572,0.1619,-0.17563,-0.045319,0.063325,0.10422,0.0096132
0.053254,-0.40635,0.090486,-0.14481,-0.023651,0.057527,0.08957,-0.00045777
0.22751,-0.5742,-0.030671,0.16007,0.076753,-0.034333,-0.079805,-0.073396
0.13901,-0.13779,-0.14237,0.048066,0.16068,-0.077974,-0.097505,-0.13931
0.0086976,0.048676,-0.031891,-0.023651,0.10544,-0.021515,-0.068818,-0.11826
-0.12772,0.16648,-0.0019837,-0.032807,0.027314,0.024262,-0.076143,-0.10178
-0.070649,-0.10636,-0.080415,-0.12345,0.07126,-0.01297,-0.041047,-0.089876
0.0041199,-0.084993,-0.11521,-0.061494,0.046845,0.018769,0.045014,-0.0090028
-0.011139,0.13748,-0.14389,-0.10697,0.03006,0.0090028,-0.0074769,0.02182
0.053254,0.069123,-0.15488,-0.15854,-0.00015259,0.0053407,0.031586,0.017243
-0.026703,0.16342,-0.092317,-0.15671,-0.070649,0.027008,0.04715,0.063325
-0.1033,0.16922,-0.080415,-0.094453,-0.086213,0.024567,0.0795,0.053864
-0.17807,0.08957,-0.10483,-0.065766,-0.070039,-0.0041199,0.21683,0.093843
-0.047761,-0.12619,-0.035859,0.022126,-0.0206,-0.058137,0.009308,0.11276
-0.00076295,-0.18051,-0.046235,-0.13443,0.0056458,-0.028229,-0.04593,0.11704
-0.025177,-0.13748,0.01236,-0.11673,0.024262,0.0090028,-0.10025,0.051118
-0.089876,-0.010224,-0.020294,-0.039521,0.027314,0.018463,-0.38102,0.014191
-0.038911,-0.050202,-0.0099184,-0.068818,0.059968,0.075837,0.12497,0.061189
-0.013581,-0.10239,0.0035096,-0.036774,0.030365,0.073396,0.10239,0.0038148
-0.017548,-0.064546,-0.024567,-0.05539,-0.014801,0.046235,0.057527,-0.033722
-0.085908,-0.13565,0.00076295,-0.086519,0.02945,0.05417,0.21195,-0.0096132
-0.06302,-0.036164,-0.095979,-0.058747,-0.00076295,0.074617,0.26993,0.017243
-0.0022889,0.087739,-0.074922,-0.072175,-0.011139,0.077363,0.21805,0.0090028
0.07126,0.10513,-0.028229,0.050202,0.0038148,0.026398,0.15915,-0.016632
0.032807,-0.038911,-0.15976,-0.13901,0.081636,-0.081636,-0.55558,-0.10941
-0.05539,-0.08072,-0.15061,-0.19364,0.10605,-0.10147,-0.76249,-0.069734
-0.030365,0.068513,-0.084993,-0.12192,-0.0083925,0.00076295,0.19181,0.065156
0.0013733,-0.079805,-0.018158,-0.083162,-0.059052,0.016938,0.053864,0.018158
0.014801,-0.030365,0.005951,-0.025177,-0.093843,0.047456,0.06424,0.045624
-0.10544,0.26596,-0.2153,-0.060273,-0.014496,0.0022889,0.09659,0.016022
-0.18662,0.24857,-0.11704,-0.087129,0.026093,-0.04593,0.07248,0.027008
-0.075532,-0.01297,-0.0053407,-0.078889,0.033112,-0.04715,0.19089,0.10086
0.023041,-0.41611,0.13352,-0.027619,0.026093,0.030365,0.21073,0.056001
0.10971,-0.2916,-0.032502,-0.07248,0.00045777,0.055085,0.034333,0.013886
0.11856,-0.17563,0.0047303,-0.073396,0.02945,0.017243,-0.074617,-0.065156
0.12619,-0.36606,-0.026703,-0.069429,0.042267,0.016022,-0.034943,-0.047761
-0.037079,-0.065766,-0.049287,-0.1088,0.043793,0.009308,0.0086976,-0.030671
-0.033112,-0.1326,-0.07126,-0.049592,0.010529,0.041352,0.020294,-0.045014
-0.0041199,-0.06424,-0.022431,0.11429,0.0013733,0.046235,0.014801,-0.046845
-0.10849,0.18112,-0.11612,-0.057527,0.07187,-0.014191,0.009308,-0.064851
-0.12375,0.22538,-0.13535,-0.14542,0.053559,0.031586,0.29191,-0.029755
-0.1268,0.13443,-0.1146,-0.085908,-0.065461,0.0972,0.30838,0.037995
-0.086213,0.098116,-0.048371,-0.059663,-0.039826,0.028534,-0.052644,0.052033
-0.039521,0.08835,-0.1088,-0.25406,0.0065614,-0.08011,-0.44327,0.08957
-0.055695,0.14633,-0.082246,-0.4036,0.012055,-0.14847,-0.76249,-0.0028992
-0.044404,0.01236,-0.080415,0.2562,-0.034333,0.0019837,0.067292,0.014191
-0.077363,-0.10239,-0.09659,-0.14572,-0.042573,0.068818,0.42557,0.12314
-0.07187,-0.068513,-0.087434,-0.11185,-0.060578,0.036774,0.043183,0.12589
0.01297,-0.21775,-0.0099184,-0.042878,-0.061799,0.081025,0.12253,0.029145
0.103,-0.3447,0.017548,0.041657,0.076753,0.062409,0.20127,-0.059358
-0.011139,-0.067903,0.0383,-0.0086976,0.076753,0.0028992,0.090486,-0.083467
0.063935,-0.060578,-0.014191,-0.082246,0.044099,0.025177,0.13657,-0.025788
0.065156,0.065766,-0.052033,-0.10513,0.044404,-0.052949,0.036774,0.0065614
-0.067292,0.04715,0.016022,0.0086976,0.056001,-0.10239,-0.17777,-0.017243
-0.077668,-0.20371,-0.030671,-0.099336,0.0206,0.024262,-0.48753,0.074006
-0.065461,-0.14267,-0.058137,-0.19944,0.013581,-0.005951,-0.46098,0.055085
-0.0053407,-0.092317,-0.019074,-0.035248,0.036164,0.016327,0.19974,-0.061189
-0.032807,0.17044,-0.10361,-0.080415,0.031281,0.049592,0.23423,-0.087739
-0.0074769,0.15213,-0.14572,-0.092622,0.015106,0.0053407,0.080415,-0.052644
-0.0019837,-0.0016785,-0.13779,-0.065766,-0.034638,0.0077821,0.034028,0.056001
-0.11978,-0.090486,-0.14145,-0.041352,-0.03769,0.010224,-0.043488,0.043488
0.0047303,-0.1619,-0.10208,-0.088655,-0.018463,-0.01297,0.14786,0.10147
-0.014496,0.0032044,-0.069123,-0.095674,0.032197,-0.075227,0.053864,0.067292
0.014191,-0.034638,-0.04593,-0.09781,-0.022126,0.009308,-0.0074769,0.055085
-0.12345,0.093843,-0.034638,-0.048371,-0.0074769,-0.0068666,-0.014191,0.02884
0.052033,-0.06363,-0.052033,-0.066987,0.010529,-0.015412,-0.034943,0.040131
-0.020294,0.012665,0.027314,-0.054475,-0.027008,0.091096,0.10971,0.002594
-0.045624,-0.09659,0.038605,-0.042267,0.0071717,0.050813,0.078584,-0.045624
-0.0056458,-0.20829,-0.0083925,-0.08072,0.011444,0.028534,-0.012665,0.039826
0.0041199,-0.14542,-0.0047303,-0.075532,0.056916,0.024872,-0.028534,-0.034943
-0.0047303,-0.015412,-0.039826,-0.069123,0.083772,0.020905,0.025788,-0.061494
-0.0053407,-0.013581,-0.026703,-0.082856,0.042878,0.044404,0.042878,-0.00015259
0.073396,-0.030365,-0.078584,0.0028992,0.052338,0.019989,0.010529,-0.020905
-0.014801,0.13565,-0.10666,-0.092622,0.068208,-0.023041,0.005951,-0.072175
-0.13687,0.028534,-0.099336,-0.12284,-0.026703,0.018158,0.03769,-0.036774
-0.10422,0.02121,-0.10727,-0.13046,-0.069123,0.0383,0.039521,0.025788
-0.20951,0.14237,-0.11887,-0.103,-0.05478,0.010224,0.027924,0.067292
-0.17411,0.016632,-0.11246,-0.079194,-0.051118,0.0099184,0.041352,0.15427
-0.074922,-0.030671,-0.18082,-0.103,-0.032502,-0.014801,0.040131,0.16037
0.030365,-0.095979,-0.056001,-0.055695,-0.015106,-0.029145,0.011444,0.081331
0.03006,-0.13443,-0.012665,-0.083772,0.016022,-0.044404,-0.049287,-0.017243
0.022736,-0.06363,0.018158,-0.092317,0.019074,-0.024262,-0.062104,-0.052949
0.11521,-0.10452,0.0383,-0.04715,-0.030671,0.026093,-0.0019837,-0.018463
0.089265,0.035859,-0.092927,-0.085603,0.017243,0.0083925,-0.013275,-0.045319
-0.017548,-0.15976,-0.036164,-0.078584,0.02121,0.022126,-0.0050355,-0.057221
-0.10697,-0.06363,0.0035096,-0.050507,0.0041199,0.043183,0.035248,-0.047456
-0.023346,-0.070954,0.024262,-0.077363,0.06302,0.0068666,0.036774,-0.059052
-0.018158,-0.071565,0.06302,0.00076295,0.074617,-0.0047303,0.010529,-0.055695
-0.024567,0.062715,-0.068513,-0.065461,0.05539,0.023957,-0.0053407,-0.024567
0.17014,-0.18784,-0.07126,-0.077363,0.04593,0.033417,-0.036469,-0.0019837
0.077974,-0.010529,-0.21775,-0.15366,0.0053407,0.035248,-0.015717,-0.027314
-0.092317,0.06363,-0.11978,-0.11276,-0.0071717,0.027008,0.025483,-0.033417
-0.12619,0.014496,-0.1149,-0.053254,-0.018463,-0.0068666,-0.023041,0.013886
-0.057221,0.066682,-0.12924,-0.048981,-0.015412,-0.0099184,0.013886,0.1146
-0.096284,0.0096132,-0.012055,-0.099031,0.027924,-0.036469,-0.020905,0.059052
-0.12131,-0.21469,0.0044251,-0.068208,-0.025177,0.0071717,-0.0062562,0.081331
-0.027619,-0.075532,-0.08957,-0.095064,-0.028534,-0.0047303,0.0071717,0.13169
0.0090028,0.12314,-0.12985,-0.078279,-0.0090028,-0.031891,0.0065614,0.097505
-0.069734,0.030671,-0.073396,-0.098726,-0.018158,-0.0062562,0.022126,0.031281
-0.073396,-0.055695,-0.013886,-0.084688,0.0068666,0.0038148,0.037079,0.0035096
-0.0074769,-0.12833,-0.0062562,-0.041047,0.014801,0.016632,0.074311,0.018769
0.08011,-0.15793,0.0019837,-0.042573,0.048981,0.04654,0.061494,0.011139
0.038911,0.011749,-0.031891,-0.055695,0.043488,0.057221,0.033112,-0.034333
0.045014,-0.020294,-0.040742,-0.059052,0.040436,0.028534,-0.0074769,-0.052644
-0.0050355,-0.10575,-0.00076295,-0.082856,0.02182,0.038911,0.010834,-0.023346
-0.077363,0.047456,-0.081331,-0.092927,0.0013733,0.046235,0.009308,-0.052949
-0.020294,0.002594,-0.00076295,-0.012665,-0.002594,0.028534,-0.0013733,-0.041962
-0.067903,-0.065461,-0.063325,-0.08957,0.040131,-0.0071717,-0.027314,-0.038911
-0.13626,-0.010834,-0.093538,-0.01297,0.032197,-0.022736,-0.065156,-0.041962
0.043183,-0.31449,0.02945,-0.038911,-0.035248,0.0065614,-0.012055,0.061189
-0.063935,0.033722,-0.18753,-0.088655,0.0032044,-0.033112,-0.014801,0.048066
-0.11337,0.1857,-0.15763,-0.10941,-0.00015259,-0.050507,-0.061494,0.019379
-0.053559,0.082551,-0.14054,-0.36179,-0.04654,0.0062562,0.02945,0.10422
-0.026398,0.038605,-0.059358,-0.2504,-0.034943,0.010529,0.076753,0.11398
-0.01297,-0.17014,-0.034333,0.037995,0.005951,-0.011139,0.069123,0.11246
-0.014801,-0.11154,-0.026703,-0.052338,0.011139,0.033417,0.099031,0.103
-0.02884,-0.060273,-0.012665,-0.019684,-0.049897,0.065766,0.037385,0.091707
-0.03769,-0.10452,0.0206,0.013581,-0.012055,0.037079,0.0096132,-0.00076295
-0.0047303,-0.0062562,0.00076295,-0.0044251,0.066072,0.031281,0.10025,-0.086824
0.037995,-0.074922,-0.020905,-0.022736,0.076143,0.031281,0.10605,-0.083162
0.030976,-0.040436,0.015717,0.0047303,0.044099,0.049592,0.086824,-0.089876
-0.0096132,0.085908,-0.085908,-0.069429,0.067903,-0.019684,-0.1146,-0.15061
-0.103,0.19669,-0.19883,-0.15488,0.046845,-0.033722,-0.33249,-0.09781
0.015412,-0.1384,-0.034333,-0.055695,-0.015106,0.0022889,-0.15366,-0.013581
0.023651,-0.12558,-0.05417,-0.06302,0.01297,-0.061799,-0.2208,-0.019074
0.045319,-0.087739,-0.025483,-0.079805,0.050202,-0.033417,0.012055,-0.031281
0.055085,-0.052949,-0.15,-0.1146,0.025788,-0.011139,0.27665,0.055695
-0.074922,0.17258,-0.15915,-0.2089,0.005951,-0.059358,0.067292,0.047761
-0.13077,-0.14298,-0.10056,-0.11643,-0.058442,-0.02121,0.019379,0.070039
-0.18418,-0.017548,-0.088045,-0.1265,-0.08072,0.037995,0.037079,0.17533
-0.15671,-0.025483,0.027619,-0.037385,-0.066987,0.049592,0.056611,0.16251
-0.031281,0.13169,-0.0086976,-0.029145,-0.049897,0.064546,0.057221,0.11063
0.002594,0.055085,-0.012055,0.031891,-0.019379,0.062104,0.020905,0.025483
0.033112,-0.092927,-0.10483,-0.046845,0.00076295,0.039216,0.019989,-0.031586
0.06302,-0.20401,-0.041657,-0.13535,0.067597,0.0010681,0.0086976,-0.060883
0.21012,-0.37461,0.015717,-0.030365,0.059968,-0.0028992,-0.045319,-0.057221
0.07126,-0.062409,0.036774,-0.0068666,0.095369,-0.061189,-0.08011,-0.12863
0.02884,-0.0383,-0.036774,-0.074617,0.098726,-0.02945,0.11704,-0.11765
-0.066682,-0.20768,-0.02182,-0.085603,0.023957,0.053559,0.053559,-0.0080873
-0.11337,-0.0099184,-0.081941,-0.018769,0.024262,0.022736,0.020294,0.005951
-0.060883,0.036469,-0.12619,-0.088655,0.023651,0.010529,0.096284,0.024872
-0.073701,0.18112,-0.19791,-0.19577,0.016632,0.012055,0.15824,-0.0062562
-0.14145,0.035248,-0.12314,-0.19547,-0.056611,0.043488,0.18692,-0.0071717
-0.17716,0.07248,-0.073396,0.0010681,-0.072786,-0.019989,-0.19394,0.033722
-0.10849,0.069734,-0.078584,-0.098726,-0.032807,-0.031891,-0.2974,0.057832
-0.018158,-0.18021,0.10208,-0.069123,-0.0080873,-0.034943,0.076143,0.069734
0.091402,-0.086824,-0.093538,-0.032197,-0.01236,-0.051118,-0.27329,0.055085
0.079805,0.26047,-0.12711,-0.066377,0.033722,-0.0062562,-0.24887,0.05539
-0.036469,0.15946,-0.032197,-0.12161,-0.010529,0.042878,0.30411,0.053559
-0.13169,-0.09659,0.0016785,-0.079805,-0.051423,0.041352,0.29526,0.044099
-0.17929,-0.31754,-0.016938,-0.038605,-0.018769,0.073701,0.27726,0.072786
-0.02121,-0.17166,-0.07187,-0.11063,0.088655,0.055085,0.17777,0.027619
0.055695,0.074617,-0.040131,-0.056306,0.10636,0.010529,-0.25376,-0.059052
0.013581,0.048676,-0.066682,-0.061494,0.0056458,0.014191,-0.78782,-0.14481
0.11429,-0.26505,-0.027924,-0.038605,-0.0096132,0.0383,0.024872,-0.050813
0.14206,-0.16251,0.016327,0.0068666,-0.0032044,0.030671,0.22904,-0.038605
-0.035859,-0.15366,-0.019684,-0.099031,0.014191,-0.026093,0.0010681,-0.095064
-0.16281,0.042573,-0.11704,-0.17075,0.020905,-0.013275,0.067292,-0.025483
-0.12558,0.0041199,-0.053254,-0.0032044,-0.0068666,0.02121,0.033112,0.08072
-0.0032044,0.048066,-0.15457,-0.12955,-0.0050355,0.019074,0.086519,0.11429
-0.07126,-0.072786,-0.077363,-0.1799,-0.0068666,0.014191,0.1091,0.092622
-0.10147,-0.0047303,-0.034333,-0.047456,-0.060578,0.039216,0.10086,0.099641
-0.17197,0.19028,-0.17746,-0.11978,0.0086976,-0.01297,0.04654,0.060273
-0.059052,0.090486,-0.09659,-0.032502,-0.029145,0.0010681,0.08835,0.050202
0.077974,0.058747,-0.029755,-0.00045777,-0.033722,0.025177,0.2501,0.033112
0.13046,-0.10636,-0.0022889,-0.077058,0.047456,-0.005951,0.21469,-0.009308
-0.00076295,-0.08957,-0.012055,-0.21622,0.024262,0.042267,0.30167,0.056611
0.068208,-0.24216,0.024262,-0.13046,0.0090028,0.00045777,-0.031281,0.002594
-0.00015259,-0.030365,-0.032807,0.024567,0.026093,-0.037995,-1.1315,-0.075532
0.043183,-0.18662,0.020905,0.094759,0.053864,0.0071717,-0.37766,-0.057527
0.017243,-0.17288,-0.010224,-0.073091,0.072175,0.0053407,0.34897,-0.058747
0.0086976,-0.041352,-0.066987,-0.057527,0.10971,-0.039216,0.15488,-0.1207
-0.046845,0.073396,-0.066377,-0.070649,0.048981,0.019074,0.31174,-0.11643
-0.01236,0.093843,-0.092012,-0.11673,0.011444,0.020905,0.078279,-0.050813
-0.10971,0.011444,-0.092622,-0.14359,-0.012665,-0.046235,-0.24765,-0.010529
-0.099031,0.016327,-0.13901,-0.1265,-0.022736,-0.055695,-0.38926,0.027314
-0.095979,0.094148,-0.18418,-0.12772,-0.044709,0.051423,0.0053407,0.14786
-0.092317,0.075532,-0.12375,-0.12039,-0.036469,0.041352,0.27115,0.11063
-0.077363,0.034028,-0.076448,-0.06424,-0.06363,0.0080873,0.053254,0.031281
-0.041047,-0.15579,-0.062104,-0.065766,-0.08896,0.040436,0.052949,0.047456
-0.084077,-0.11276,-0.012055,-0.015412,-0.040742,0.017243,0.047456,0.059052
-0.066072,-0.094759,0.0096132,-0.061799,0.0077821,-0.055085,0.013581,0.094453
-0.13474,0.22416,-0.024262,-0.20554,0.061799,-0.050507,0.060273,0.10788
0.067292,0.037079,0.0083925,-0.058747,0.0090028,0.083162,0.24216,0.1445
0.084382,-0.23972,0.033417,0.0010681,0.043793,0.028534,0.16464,0.064546
0.12039,-0.35782,-0.028534,-0.082856,0.046845,0.033112,0.0077821,-0.040742
0.098421,-0.41093,-0.0053407,0.18112,0.041962,0.01236,-0.061799,-0.083162
0.079805,-0.062104,-0.034333,-0.042267,0.10452,-0.038911,-0.093843,-0.13199
-0.0068666,0.053559,-0.050813,-0.13443,0.06302,0.01236,-0.047456,-0.12253
-0.032502,0.14145,-0.10544,-0.10361,-0.048981,0.07248,-0.032502,-0.063935
-0.15091,0.085603,-0.081025,-0.27115,0.035248,0.01236,-0.051423,-0.045014
-0.15457,0.058747,-0.13687,-0.14298,-0.015412,0.01297,-0.030671,0.002594
-0.11704,0.070344,-0.084382,-0.0062562,-0.053864,-0.013581,0.021515,0.069429
-0.11643,0.05539,-0.10483,-0.08957,-0.012055,-0.024262,0.072786,0.044099
-0.092927,0.22232,-0.12253,-0.094453,-0.011444,0.019379,0.014801,0.037385
-0.024262,0.011139,-0.089265,-0.06363,-0.0028992,-0.024872,-0.020905,0.030365
-0.015106,-0.21347,-0.06302,-0.087129,-0.034638,0.034333,0.082246,0.065766
0.088655,-0.35019,-0.01236,-0.035248,-0.030671,0.054475,0.16709,0.10483
0.15091,-0.072786,-0.055085,-0.0086976,-0.0096132,0.05539,0.12009,0.03769
0.074617,0.12436,-0.06424,-0.031586,0.068208,-0.062409,-0.069123,-0.087129
-0.0074769,-0.17044,0.0083925,-0.087739,0.11765,-0.15396,-0.41794,-0.14328
-0.02945,-0.056916,0.011444,-0.095369,0.033417,0.0028992,-0.17624,-0.076143
-0.075227,0.16739,-0.092927,-0.11063,0.0090028,0.074617,0.14206,-0.049287
-0.026703,0.081941,-0.0383,-0.08072,0.026093,0.091402,0.060273,-0.018769
-0.10636,0.12589,-0.07248,-0.13962,0.0050355,0.061189,0.053864,-0.0044251
-0.013581,-0.13382,0.0062562,0.033722,0.0013733,0.0090028,0.11032,0.029145
0.0010681,-0.39994,0.15702,0.049592,0.02945,-0.032807,0.10605,0.033722
0.023651,-0.49516,-0.0016785,-0.09781,0.03769,-0.045319,-0.19394,-0.0019837
-0.16007,0.13718,-0.19669,-0.16556,0.03006,-0.020905,-0.0206,0.033417
-0.088045,-0.015412,-0.17777,-0.11398,-0.015106,0.031586,0.14725,0.09781
0.022736,0.081636,-0.17136,-0.13718,-0.04593,0.036469,0.14237,0.11856
0.011139,-0.019989,-0.11826,-0.15,-0.018463,-0.013581,0.027924,0.040436
-0.070039,0.19577,-0.11612,-0.051728,-0.036469,-0.0019837,-0.11917,0.060578
-0.063935,0.10605,-0.05478,-0.0071717,0.0019837,-0.01297,-0.064546,0.041352
-0.10178,0.033112,-0.036774,-0.08957,0.0071717,0.005951,0.055085,0.046235
-0.056916,-0.01236,-0.0074769,-0.11887,-0.026398,0.035248,0.011444,0.039216
-0.022126,-0.046845,-0.0062562,-0.052644,-0.04593,0.065156,0.053559,0.017548
0.032807,-0.19974,0.037385,0.0080873,0.0010681,0.037079,0.027619,-0.036469
0.030365,-0.081331,-0.034028,-0.059358,0.052338,0.0062562,-0.0096132,-0.084993
-0.025177,-0.036774,0.012055,-0.084993,0.07187,-0.01297,-0.036774,-0.10452
0.13809,-0.19699,-0.010224,-0.11917,0.025788,0.025483,0.01297,-0.027314
0.1796,-0.19638,-0.067903,-0.075837,0.018158,0.030671,0.030365,-0.033417
-0.027619,0.044709,-0.068513,-0.032502,0.041352,0.016938,-0.0044251,-0.10452
-0.048371,0.0013733,-0.035554,0.026703,0.026703,0.016632,0.027924,-0.0206
-0.084077,0.10208,-0.12955,-0.075837,0.02945,-0.023346,-0.0022889,-0.0074769
-0.1799,0.23819,-0.1677,-0.14481,0.022736,-0.03769,-0.019684,0.026703
-0.19791,0.17258,-0.12467,-0.1033,-0.023041,-0.013275,0.022736,0.12833
-0.11765,0.0041199,-0.10117,-0.083162,-0.039826,-0.011139,0.02121,0.14847
-0.037385,-0.20829,-0.12497,-0.18509,-0.051118,-0.0013733,0.0035096,0.088045
-0.00076295,-0.22995,-0.04654,-0.17075,-0.049592,0.0080873,0.016938,0.051728
-0.03769,-0.043793,-0.051728,-0.067597,0.019989,-0.023041,0.0050355,0.00076295
-0.0080873,-0.049897,-0.011749,-0.053559,-0.024262,0.037995,0.039826,0.044404
-0.030976,0.027619,-0.0074769,-0.062409,-0.023041,0.02884,0.017243,0.045014
-0.0028992,0.044709,-0.0206,-0.05539,0.033417,0.0041199,-0.029755,0.0090028
-0.0080873,0.033722,-0.060273,-0.052644,0.016022,0.02121,-0.040436,-0.015717
-0.054475,-0.08011,0.022736,-0.025177,0.047456,0.027314,-0.0019837,-0.059052
-0.081636,-0.32181,0.095064,0.062715,0.027314,0.065766,0.17502,-0.052949
-0.022126,-0.10025,-0.062104,-0.047456,0.077974,0.037385,0.21347,-0.034638
-0.05478,0.0056458,-0.093538,-0.086824,0.078279,0.02884,0.13382,-0.10452
0.011749,-0.052338,-0.10605,-0.14115,0.015412,0.019989,0.13413,-0.026398
0.095674,-0.0074769,-0.10483,-0.093843,0.0077821,-0.005951,-0.41337,-0.0028992
0.08011,0.13931,-0.10697,-0.12985,0.011139,-0.0068666,-0.67369,0.028229
-0.056611,0.16831,-0.040742,-0.12314,-0.02945,0.037079,0.26261,0.11704
0.037079,-0.22019,-0.013581,-0.066682,-0.09781,0.047456,0.17777,0.031586
-0.029755,-0.21195,-0.21958,-0.097505,-0.00076295,-0.048371,0.04654,0.011444
0.035248,-0.33341,-0.12772,-0.10483,0.034028,-0.049287,0.061189,0.028229
-0.11795,0.094759,-0.1265,-0.059358,-0.013275,-0.019074,-0.024567,0.0053407
-0.21286,0.32059,-0.020905,-0.058442,-0.020294,-0.033112,-0.01297,0.040131
-0.082246,0.17044,-0.036774,0.012665,-0.023041,-0.0022889,0.018158,0.052033
-0.024567,-0.084382,-0.0016785,-0.083772,0.050202,0.0038148,0.039521,0.027314
0.011139,-0.13291,0.034028,-0.084688,0.10361,0.044099,0.056306,0.0053407
0.080415,-0.1976,-0.014801,-0.030976,0.045014,0.056306,0.06302,0.035248
-0.00015259,-0.13382,-0.031891,-0.039216,-0.0028992,0.016632,0.010529,-0.025788
-0.099031,-0.062104,-0.040131,-0.095674,0.020905,0.016938,-0.030671,-0.058747
0.027924,-0.0795,-0.055085,0.051423,-0.033112,0.048676,-0.018158,-0.032502
0.10636,-0.060883,-0.099031,-0.1677,-0.048371,0.051423,0.037385,-0.016327
0.13901,-0.16556,0.11917,-0.23362,0.049897,-0.028229,0.0074769,-0.075227
0.04715,-0.082551,-0.074617,-0.035248,0.073701,-0.041962,-0.030365,-0.091402
-0.12802,0.28244,-0.088655,-0.016938,0.094759,-0.071565,-0.043488,-0.045319
-0.069429,-0.057832,-0.073091,-0.058747,0.029145,-0.044404,0.019379,0.093843
-0.091096,-0.1268,-0.19883,-0.0972,-0.022431,0.016327,0.19333,0.11093
-0.096284,0.073091,-0.16495,-0.1384,-0.01236,0.014801,0.22324,0.037995
-0.15396,0.066682,-0.13626,-0.17502,-0.065156,0.052949,0.27543,0.093843
-0.092317,-0.0074769,-0.098116,-0.11734,-0.095674,0.031281,0.039216,0.12406
-0.083772,-0.082246,-0.012055,-0.044709,-0.072786,0.014496,-0.16678,0.081331
-0.057221,-0.060578,-0.025788,-0.039216,-0.010224,-0.019074,-0.43442,-0.0022889
-0.068818,-0.092927,0.017548,-0.022736,0.032807,-0.057527,-0.64652,-0.0041199
-0.030365,-0.11185,0.057527,-0.024872,-0.026703,0.10513,0.26322,0.037995
0.023346,-0.018463,0.010834,-0.10697,-0.014191,0.10086,0.29191,0.02182
0.12833,-0.08011,0.0074769,-0.0044251,0.078584,0.039521,0.061189,-0.045624
0.17227,0.022126,-0.04715,0.068208,0.14481,-0.011444,0.016022,-0.10971
0.039216,-0.010834,-0.082246,-0.12528,0.13993,-0.045014,-0.038911,-0.13321
-0.11215,-0.023651,-0.068513,-0.073701,0.057832,-0.017548,-0.024872,-0.096284
-0.085298,0.03769,-0.078889,-0.059663,0.002594,0.018158,0.015106,-0.0013733
-0.081025,0.030671,-0.13993,-0.14298,-0.026703,0.050202,0.085298,0.035248
-0.093538,-0.075837,-0.074922,-0.23301,-0.073091,0.016022,0.10544,0.062409
-0.15946,0.02182,-0.12772,-0.18997,-0.023041,-0.055695,-0.015717,0.043793
-0.098116,0.066072,-0.13504,-0.11032,-0.033417,-0.023346,-0.1265,0.047456
-0.030976,0.062104,-0.069429,-0.056916,-0.10391,0.055085,-0.070039,0.075227
-0.043488,0.037079,-0.10697,-0.022431,-0.055085,0.010224,0.031281,-0.0050355
-0.010529,-0.074311,-0.043183,0.023346,-0.0041199,-0.0056458,0.064546,-0.0071717
-0.02884,0.034028,-0.016022,-0.066987,0.019684,0.035554,0.11704,0.046845
-0.034333,-0.058747,-0.016022,-0.10086,0.046845,-0.023041,0.13413,0.041962
0.10269,-0.42802,-0.035859,-0.0071717,0.030976,-0.028229,0.23209,0.043793
0.11063,-0.23453,0.0083925,-0.0032044,0.070039,0.022126,0.41276,0.019684
0.071565,-0.099641,0.052033,-0.026093,0.067903,0.034943,0.34501,0.049287
0.06302,-0.052949,0.011444,0.0090028,0.059358,0.00015259,0.19791,-0.0050355
0.10697,-0.22049,-0.023651,-0.060578,0.069123,-0.021515,-0.41886,-0.084382
0.04715,-0.14664,-0.099031,-0.10544,0.046845,-0.030365,-1.194,-0.13626
-0.059968,0.10117,-0.086213,-0.0795,0.019074,-0.0068666,-0.3093,-0.16678
-0.11643,0.13748,-0.073091,-0.13901,0.016022,0.028534,0.15213,-0.10117
-0.10452,0.1384,-0.12528,-0.16922,-0.0065614,0.048371,0.39261,0.019989
-0.2031,0.14115,-0.11246,-0.15091,-0.025788,0.017853,0.23148,0.060578
-0.15488,0.087739,-0.16098,-0.12741,-0.039216,-0.044099,-0.14542,0.10086
-0.069734,-0.015717,-0.11612,-0.10666,-0.043793,-0.016938,-0.15824,0.11887
-0.12253,0.016022,-0.076753,-0.10452,-0.034638,0.034943,0.19913,0.11917
-0.17288,0.041352,-0.069429,-0.11582,-0.053559,0.032807,0.13169,0.1387
-0.0074769,-0.040742,-0.06424,-0.099947,-0.057221,0.04715,0.10575,0.1915
0.11093,-0.17594,0.023346,-0.10575,-0.027314,0.010224,-0.0053407,0.092622
0.010834,-0.018463,-0.0044251,-0.10452,0.01297,0.00076295,-0.014191,-0.018463
-0.10727,0.073701,0.023346,-0.049287,0.013275,0.04654,0.096284,0.00076295
-0.11002,0.0032044,0.043488,0.056916,-0.0028992,0.054475,0.099947,0.018769
0.0013733,-0.21225,0.023651,0.1265,0.042267,0.037995,0.10056,-0.0050355
0.12619,-0.36667,-0.053864,0.1091,0.096895,-0.0022889,0.005951,-0.057527
0.16892,-0.35386,-0.083467,0.017243,0.12436,-0.017853,-0.039216,-0.086213
0.13046,-0.066682,-0.092927,-0.12894,0.098421,0.00076295,-0.0074769,-0.11215
-0.02121,0.14878,-0.11551,-0.17075,0.057221,0.0053407,0.0019837,-0.087434
-0.08896,0.025177,-0.0056458,-0.16342,0.0080873,0.0090028,-0.020905,-0.060578
-0.12985,0.060273,-0.1146,-0.16464,-0.02945,0.024567,-0.010224,-0.022736
-0.061494,-0.026703,-0.13138,-0.1207,-0.049592,0.022736,0.0035096,0.043793
-0.044709,0.12985,-0.10269,-0.082856,-0.059663,-0.0068666,-0.00045777,0.058137
-0.050813,0.14389,-0.067903,-0.066682,0.0032044,-0.06363,-0.060578,0.011749
-0.033722,0.0206,-0.12131,-0.0972,0.0019837,-0.071565,-0.083772,0.016938
-0.038605,0.11215,-0.068208,-0.10483,-0.025788,-0.0022889,0.0038148,0.061189
-0.048981,0.024262,-0.056611,-0.09781,-0.01297,0.015106,0.0068666,0.026093
0.037385,-0.1268,-0.027924,-0.057527,-0.024567,0.033112,0.014801,0.039826
-0.0032044,-0.24277,0.10239,-0.056611,-0.002594,0.035554,0.032197,0.041962
-0.066072,-0.27665,-0.017548,-0.20554,0.036774,0.038605,0.12375,0.0086976
-0.039521,-0.19547,-0.044099,0.28855,0.023041,0.025483,0.22263,-0.013581
0.018769,0.018158,-0.069123,-0.16159,0.033417,0.002594,0.18296,-0.02121
0.026703,0.058747,-0.061189,-0.090791,0.065156,0.020905,0.13413,-0.049287
0.0041199,-0.086213,0.046845,-0.074922,0.03006,0.059663,-0.33463,-0.081025
0.08072,-0.13352,-0.01236,-0.0047303,0.076753,-0.034943,-0.84092,-0.10636
-0.0035096,0.081941,-0.12711,-0.095674,0.009308,0.014191,0.18967,0.014191
-0.10056,0.048066,-0.12497,-0.083467,0.018158,-0.0074769,0.25437,0.029145
-0.024567,-0.052644,-0.15946,-0.099336,0.018769,-0.038911,0.070344,0.065766
-0.0032044,-0.05478,-0.10269,-0.14755,-0.0080873,-0.005951,0.065766,0.11673
-0.13352,0.079805,-0.07248,-0.11368,-0.056001,0.013275,0.016022,0.091402
-0.14817,0.061494,-0.095979,-0.11582,-0.074617,0.022126,0.043793,0.083467
-0.078889,0.15915,-0.12497,-0.18204,-0.051118,0.0032044,0.043183,0.059663
-0.022126,0.10391,-0.0016785,-0.023346,-0.0795,0.0383,0.070039,0.055695
0.0047303,-0.094453,-0.011444,-0.030976,-0.024872,0.036164,0.055695,0.046845
0.08011,-0.33646,0.0019837,0.081941,0.070649,-0.009308,-0.01236,-0.022736
0.015412,-0.13626,-0.042267,-0.0206,0.091707,-0.018158,-0.032807,-0.087739
0.02884,-0.038605,-0.0022889,-0.076448,0.1149,-0.029755,-0.013275,-0.05539
-0.064546,-0.076753,0.047456,-0.074617,0.023041,0.015412,0.040131,-0.0028992
-0.043183,0.025483,-0.02182,-0.12284,-0.0065614,0.052338,0.024872,-0.013275
-0.069734,-0.042573,-0.033112,-0.052644,-0.0044251,0.079194,0.028229,-0.013581
