0.02121,-0.10941,-0.019684,-0.042878,0.063935,-0.0019837,0.0035096,-0.0062562
0.019989,-0.090181,-0.030365,-0.051728,0.047761,0.0062562,0.02121,0.0099184
-0.010224,-0.058442,-0.056306,-0.078584,0.041352,0.024872,0.02884,-0.0019837
-0.014496,-0.02182,-0.08072,-0.077363,0.031281,0.023957,0.036774,0.01297
-0.05539,0.0013733,-0.092622,-0.081636,0.025788,0.009308,0.040436,0.039521
-0.077363,0.067597,-0.12284,-0.11307,0.018769,0.011444,0.030365,0.02182
-0.081331,0.11124,-0.12497,-0.12558,-0.0056458,0.00045777,0.013581,0.059358
-0.084077,0.056306,-0.11826,-0.11582,-0.020294,0.0044251,0.019074,0.12711
-0.079194,0.051728,-0.096895,-0.1091,-0.021515,-0.013275,0.0050355,0.092927
-0.087129,0.048371,-0.09659,-0.10727,-0.030976,-0.015106,0.0035096,0.032807
-0.075837,0.017243,-0.056611,-0.096284,-0.038605,0.0053407,0.0068666,-0.00076295
-0.05539,-0.032807,-0.043183,-0.06302,-0.0383,0.026093,0.023957,0.0071717
-0.024567,-0.069429,-0.028229,-0.051118,-0.019684,0.022736,0.031281,0.015106
0.023346,-0.12467,0.0013733,-0.03769,-0.0062562,0.025483,0.017853,-0.0074769
0.042878,-0.10666,0.0083925,-0.035248,0.016632,0.02945,-0.00076295,-0.075837
0.034028,-0.10544,0.014801,-0.025483,0.043488,0.0083925,-0.0083925,-0.10239
0.053254,-0.13046,0.019989,-0.031586,0.054475,0.0028992,-0.024872,-0.095369
0.055695,-0.14878,-0.014801,-0.040131,0.049897,0.0013733,-0.027008,-0.090791
0.025483,-0.094759,-0.063935,-0.062409,0.060273,-0.013886,-0.026398,-0.082246
0.016938,-0.099336,-0.066682,-0.066987,0.055695,-0.010834,-0.014801,-0.076143
-0.010224,-0.11154,-0.087434,-0.073701,0.042267,-0.0032044,-0.020905,-0.033417
-0.059358,0.056306,-0.11154,-0.12253,0.024262,-0.0041199,-0.028534,-0.0019837
-0.093233,0.073701,-0.13382,-0.12436,-0.009308,0.0028992,-0.0065614,0.05539
-0.11246,0.060578,-0.11521,-0.12741,-0.027008,0.0080873,0.017243,0.10056
-0.12131,0.077363,-0.10544,-0.11276,-0.038605,-0.0010681,0.0047303,0.11612
-0.12772,0.074311,-0.098421,-0.097505,-0.057832,0.0028992,0.023346,0.12314
-0.0972,0.049592,-0.084688,-0.09659,-0.05539,0.0038148,0.06302,0.13809
-0.048981,-0.035859,-0.024567,-0.046845,-0.032807,0.009308,0.084688,0.14023
-0.024872,-0.056611,-0.019684,-0.058442,-0.0096132,0.0065614,0.040131,0.095674
-0.0062562,-0.066987,-0.034028,-0.076448,0.016022,0.022431,0.025177,0.029145
0.0086976,-0.11246,-0.01297,-0.050202,0.025788,0.048676,0.044099,0.013886
0.037079,-0.11765,-0.015717,-0.058137,0.027008,0.0383,0.010529,-0.00076295
0.033112,-0.11765,-0.0035096,-0.053254,0.034943,0.012055,-0.016938,-0.066682
0.03006,-0.11795,0.002594,-0.045014,0.04715,0.015106,-0.013581,-0.096895
0.025788,-0.10178,-0.027619,-0.048981,0.047456,0.02121,0.0013733,-0.085908
0.014191,-0.042267,-0.06424,-0.069734,0.05539,0.020905,0.0056458,-0.077363
0.0065614,-0.032807,-0.056611,-0.077058,0.041657,0.016938,0.028229,-0.043183
-0.027619,-0.037385,-0.075227,-0.072175,0.014801,0.0090028,0.031586,-0.0090028
-0.055695,0.0086976,-0.11765,-0.10452,0.010529,0.010834,0.031586,0.0047303
-0.090791,0.050507,-0.13565,-0.13596,0.005951,-0.0077821,0.0035096,0.015412
-0.08011,0.058442,-0.1207,-0.12161,-0.015106,-0.0028992,0.0065614,0.039216
-0.090181,0.05417,-0.1033,-0.11734,-0.037079,0.014496,0.014191,0.052033
-0.084993,0.052033,-0.098726,-0.090486,-0.041657,0.011444,0.0038148,0.083772
-0.018463,0.0083925,-0.067903,-0.074922,-0.042573,0.010834,0.016938,0.11368
0.0041199,-0.030365,-0.034943,-0.077058,-0.02884,0.0022889,0.0071717,0.092927
0.014801,-0.058442,-0.014191,-0.04654,-0.0068666,-0.0053407,-0.022431,0.016022
0.017243,-0.095979,-0.010224,-0.058137,0.023041,0.00045777,-0.031281,-0.023651
0.010834,-0.13046,-0.0047303,-0.034333,0.036774,0.0068666,-0.024872,-0.038911
0.0053407,-0.11337,0.002594,-0.052949,0.046845,0.010834,-0.028534,-0.069734
0.0035096,-0.11826,-0.014801,-0.045624,0.052338,0.019074,-0.018769,-0.085908
-0.0056458,-0.12284,-0.030671,-0.056611,0.050202,0.025177,0.0080873,-0.096284
0.0053407,-0.10544,-0.026398,-0.038605,0.05539,0.010529,-0.002594,-0.077058
-0.025788,-0.052949,-0.047761,-0.069734,0.04593,0.021515,0.0019837,-0.05539
-0.053254,-0.0022889,-0.08072,-0.08896,0.037995,0.009308,-0.010224,0.0041199
-0.078889,0.034333,-0.10971,-0.093538,0.02121,-0.0077821,-0.0062562,0.065766
-0.10147,0.059358,-0.11856,-0.12131,-0.0013733,-0.0077821,0.060578,0.086519
-0.11429,0.070649,-0.11887,-0.12375,-0.02121,0.018158,0.084077,0.10483
-0.13138,0.075532,-0.10971,-0.12558,-0.044709,0.024567,0.054475,0.093843
-0.11856,0.039521,-0.082551,-0.10849,-0.04654,0.029145,0.075837,0.066072
-0.082856,0.026093,-0.094453,-0.10483,-0.035859,0.024567,0.066682,0.057832
-0.022126,-0.010224,-0.056611,-0.084688,-0.036469,0.0083925,0.035248,0.048371
-0.0080873,-0.050507,-0.028534,-0.056916,-0.017548,0.012665,0.022736,0.093843
0.027619,-0.1088,-0.023957,-0.054475,0.00076295,0.0083925,0.005951,0.092317
0.042267,-0.10422,-0.0099184,-0.048371,0.0053407,0.0041199,-0.0065614,0.038911
0.063325,-0.12253,0.0022889,-0.03769,0.028229,0.0022889,-0.0035096,-0.0090028
0.054475,-0.13779,0.022126,-0.033112,0.049897,-0.0053407,-0.0044251,-0.056611
0.041047,-0.12253,-0.022431,-0.048676,0.053864,-0.010224,-0.030976,-0.10941
0.042267,-0.10788,-0.032807,-0.061189,0.053559,-0.0013733,-0.030976,-0.12711
0.023041,-0.095369,-0.060273,-0.069734,0.056306,0.0206,-0.012665,-0.098421
0.0028992,-0.052644,-0.070039,-0.083162,0.042267,0.016327,-0.0044251,-0.057221
-0.016632,-0.012665,-0.095064,-0.091402,0.020905,-0.0077821,-0.0032044,-0.035554
-0.030671,0.037079,-0.13748,-0.10086,0.0071717,-0.009308,-0.0010681,-0.019684
-0.077668,0.059358,-0.098421,-0.11673,-0.0086976,0.00045777,0.0071717,-0.010224
-0.095064,0.060273,-0.098726,-0.096284,-0.034638,0.0099184,0.010529,0.024872
-0.090791,0.052338,-0.10025,-0.10239,-0.04593,0.010529,0.015412,0.062104
-0.089265,0.040131,-0.078584,-0.081025,-0.033417,-0.0016785,0.011749,0.08072
-0.085603,-0.00045777,-0.066682,-0.087739,-0.027008,-0.0090028,0.010834,0.077363
-0.053254,-0.030976,-0.06424,-0.07248,-0.027619,-0.0071717,0.010834,0.095979
-0.043793,-0.036774,-0.044709,-0.067597,-0.0062562,0.0028992,0.012665,0.0795
-0.022736,-0.085603,-0.0065614,-0.049592,0.0050355,0.014191,0.030365,0.044404
-0.0083925,-0.1088,0.00015259,-0.042573,0.015717,0.0206,0.028229,0.047761
0.010529,-0.11734,-0.016022,-0.044404,0.040436,0.019074,0.026093,0.012055
0.039216,-0.10758,-0.0096132,-0.060273,0.052033,0.024567,0.024872,-0.031891
0.039521,-0.076448,0.00015259,-0.041657,0.053559,0.030976,0.011444,-0.059663
0.0038148,-0.064546,-0.010224,-0.044099,0.057527,0.02945,0.0065614,-0.082856
-0.030671,-0.069429,-0.052644,-0.068208,0.037385,0.024262,0.016938,-0.058137
-0.030671,-0.045624,-0.085908,-0.087739,0.02945,0.0206,0.03006,-0.032807
-0.036469,-0.0096132,-0.095064,-0.086519,0.016022,0.019379,0.018769,-0.0053407
-0.030365,0.0080873,-0.10452,-0.098726,0.019684,-0.0077821,-0.0019837,0.035248
-0.056611,0.04654,-0.1387,-0.12161,0.0028992,-0.019379,-0.011139,0.048981
-0.056611,0.047761,-0.11704,-0.11673,-0.025177,-0.014191,-0.026703,0.047456
-0.039826,0.034638,-0.076753,-0.11185,-0.044404,-0.011139,-0.059052,0.045624
-0.043793,0.032502,-0.10025,-0.10117,-0.039826,-0.0074769,0.0032044,0.066072
-0.059052,0.015717,-0.055085,-0.094453,-0.034943,-0.0062562,0.023346,0.087739
-0.051118,-0.025788,-0.030365,-0.075837,-0.02884,-0.00015259,0.022736,0.075532
-0.030671,-0.050507,-0.025483,-0.08072,-0.010224,0.013886,0.041657,0.056306
-0.016938,-0.085908,-0.011444,-0.051728,0.010529,0.012055,0.036164,0.037385
0.0047303,-0.1207,0.016632,-0.041352,0.019684,0.019074,0.045319,-0.019074
0.00045777,-0.12284,-0.0065614,-0.040742,0.032807,0.019074,0.034028,-0.044404
0.083772,-0.12589,-0.0019837,-0.033417,0.048371,0.017243,0.02182,-0.060578
0.067292,-0.10788,-0.030671,-0.039216,0.06424,0.025483,0.033112,-0.084382
0.01297,-0.10788,-0.033722,-0.043488,0.063935,0.030365,0.034943,-0.044404
-0.030365,-0.021515,-0.084688,-0.08072,0.049897,0.035554,0.015106,-0.02884
-0.07126,0.0056458,-0.092012,-0.091096,0.031586,0.030976,0.0068666,-0.049897
-0.14145,0.025788,-0.103,-0.10636,0.010529,0.028534,0.037079,-0.029755
-0.15824,0.066072,-0.11093,-0.11307,-0.0083925,0.023041,0.019074,-0.0041199
-0.12222,0.062409,-0.1088,-0.10727,-0.027314,0.023957,0.0074769,0.024262
-0.082246,0.041962,-0.076753,-0.099947,-0.029755,0.012055,0.012665,-0.0071717
-0.077058,0.041352,-0.074922,-0.083467,-0.038911,0.010224,-0.016938,-0.0013733
-0.02884,0.019074,-0.11215,-0.066987,-0.034943,0.0099184,0.010529,0.052949
-0.013581,-0.019684,-0.094148,-0.078584,-0.013581,-0.005951,0.018769,0.066377
0.02182,-0.063935,-0.052033,-0.066987,-0.0053407,-0.020905,-0.0071717,0.08835
0.034028,-0.08011,-0.010834,-0.059052,0.0056458,-0.038911,-0.014496,0.12467
0.032197,-0.082856,-0.0056458,-0.060578,0.0206,-0.053864,-0.033417,0.13382
0.019684,-0.11002,0.02884,-0.050507,0.031281,-0.015717,-0.051728,0.10452
0.022126,-0.18021,0.023651,-0.044099,0.049592,0.040131,0.077668,0.060578
0.022126,-0.13748,-0.0096132,-0.049592,0.062104,0.041657,0.10178,0.005951
0.013581,-0.077668,-0.0206,-0.056916,0.059052,0.047456,0.037385,-0.060883
0.0028992,-0.06424,-0.048066,-0.066377,0.043793,0.053254,0.018158,-0.11246
-0.016938,-0.036164,-0.074617,-0.081025,0.029755,0.042573,0.0074769,-0.11063
-0.046845,-0.0062562,-0.090486,-0.10239,0.018158,0.03006,0.0038148,-0.08011
-0.056916,0.034333,-0.10483,-0.095674,0.010529,-0.0022889,0.0038148,-0.035859
-0.078279,0.052338,-0.12558,-0.11124,-0.0032044,-0.023346,0.010834,-0.002594
-0.094453,0.060273,-0.11063,-0.11337,-0.030365,-0.026093,0.01297,0.015412
-0.099641,0.10849,-0.12131,-0.12375,-0.044404,-0.013581,0.02121,0.049592
-0.075837,0.073091,-0.098116,-0.10178,-0.049287,-0.013275,-0.0383,0.071565
-0.059663,0.023651,-0.082551,-0.094759,-0.045624,-0.0099184,-0.093843,0.070649
-0.035859,-0.01297,-0.056001,-0.07126,-0.017548,0.01297,0.034333,0.06302
-0.011139,-0.032502,-0.031891,-0.052949,-0.00015259,0.015106,0.056001,0.068208
0.016938,-0.1735,0.016327,-0.030671,0.012055,0.01236,0.019684,0.066682
0.049287,-0.18662,0.011444,-0.041352,0.0206,0.01236,0.012665,0.023041
0.063325,-0.15,0.014191,-0.036774,0.03769,0.018769,0.0047303,-0.015412
0.052033,-0.10239,-0.019989,-0.045319,0.053864,0.031281,0.023346,-0.053559
0.040436,-0.11765,0.00076295,-0.036164,0.058137,0.02884,0.0056458,-0.084382
0.023957,-0.12802,-0.0077821,-0.044404,0.069123,0.00015259,-0.010834,-0.093233
-0.013581,-0.044404,-0.074922,-0.068208,0.073701,-0.0041199,-0.0013733,-0.073091
-0.035859,-0.035859,-0.058747,-0.082856,0.059663,-0.0019837,0.00045777,-0.040742
-0.054475,-0.010834,-0.10483,-0.103,0.024262,0.0080873,0.0065614,-0.0083925
-0.07187,0.031586,-0.1268,-0.10697,-0.0022889,0.0044251,0.012665,0.0074769
-0.092012,0.05417,-0.12284,-0.10727,-0.018463,-0.00076295,0.0028992,0.037079
-0.10178,0.065156,-0.10269,-0.11856,-0.034638,0.005951,0.0099184,0.065766
-0.079805,0.044099,-0.092622,-0.1149,-0.035859,0.019074,0.040131,0.090181
-0.072175,0.045319,-0.13993,-0.10056,-0.043488,0.0099184,0.031281,0.079805
-0.056001,0.036469,-0.065766,-0.077058,-0.029755,-0.0077821,0.015717,0.069734
-0.026398,-0.015717,-0.048981,-0.084382,-0.013581,0.0065614,0.025177,0.050507
0.024262,-0.050202,-0.038911,-0.071565,-0.015106,0.027924,0.032197,0.037995
0.025788,-0.084382,0.0080873,-0.05417,-0.0050355,0.020294,0.018158,-0.0080873
0.016022,-0.13352,0.014801,-0.041047,0.019074,0.016327,0.014191,-0.053864
0.03769,-0.1503,0.011444,-0.036164,0.031281,0.015412,-0.00045777,-0.073396
0.011139,-0.13626,-0.0022889,-0.036469,0.053864,0.0080873,-0.014801,-0.078889
0.0010681,-0.096284,-0.0022889,-0.044404,0.051423,0.0053407,-0.018158,-0.049287
0.0032044,-0.077974,-0.035554,-0.049592,0.036164,0.0099184,-0.0062562,-0.01297
-0.033417,-0.038911,-0.066072,-0.065156,0.044404,0.014191,-0.011139,-0.016327
-0.034943,-0.014496,-0.092927,-0.081331,0.040131,0.01297,-0.0068666,0.005951
-0.069123,0.0035096,-0.0972,-0.095674,0.031891,-0.0041199,-0.0013733,0.049592
-0.069123,0.029755,-0.11154,-0.11032,0.016022,-0.0056458,-0.0010681,0.062409
-0.023651,0.041352,-0.1207,-0.11521,-0.023346,-0.0062562,-0.012665,0.072175
-0.026398,0.067597,-0.11337,-0.11551,-0.040436,-0.0090028,0.00045777,0.053864
-0.10422,0.066072,-0.10056,-0.11154,-0.051423,0.0013733,0.019074,0.068513
-0.14237,0.052338,-0.084993,-0.1033,-0.039521,0.00076295,0.037385,0.073701
-0.13138,0.011444,-0.06302,-0.076448,-0.030976,0.014496,0.061799,0.043793
-0.09781,-0.015412,-0.04593,-0.066682,-0.015412,0.0206,0.056306,0.041352
-0.065766,-0.044099,-0.018463,-0.052338,-0.00045777,0.016632,0.042878,0.0383
-0.013581,-0.10422,0.01236,-0.048676,0.015412,0.029145,0.021515,0.05417
0.019379,-0.11551,0.0038148,-0.047456,0.027008,0.035554,0.052338,0.034028
0.043793,-0.12406,-0.0047303,-0.043488,0.0383,0.045014,0.04715,-0.024567
0.063325,-0.13413,-0.010834,-0.047456,0.041047,0.045014,0.023041,-0.065766
0.050507,-0.121,-0.019684,-0.043183,0.044404,0.0206,-0.0065614,-0.068208
0.020294,-0.083772,-0.041047,-0.06302,0.062104,-0.013275,-0.0080873,-0.043183
-0.0090028,-0.035859,-0.07126,-0.089876,0.051728,0.0083925,0.018158,-0.039216
-0.034333,-0.0016785,-0.086824,-0.090486,0.015106,0.015106,0.029755,-0.014801
-0.063325,0.022736,-0.11887,-0.089265,-0.0028992,0.011139,0.012665,0.019989
-0.070954,0.061799,-0.13169,-0.11398,-0.010834,0.010529,-0.0047303,0.033722
-0.077363,0.08957,-0.13138,-0.10666,-0.023041,-0.0086976,-0.0068666,0.057221
-0.052644,0.02121,-0.094148,-0.098726,-0.014801,-0.013886,0.0050355,0.11093
-0.038911,-0.034638,-0.053254,-0.084688,-0.018158,-0.0080873,0.015106,0.084688
-0.044404,-0.022126,-0.086519,-0.10636,-0.016632,-0.0062562,-0.0062562,0.023041
-0.036774,-0.00015259,-0.063935,-0.097505,-0.018463,-0.00015259,-0.0090028,0.026093
-0.014801,-0.023651,-0.025788,-0.073396,-0.0096132,0.014191,0.0053407,0.03769
0.0074769,-0.087739,-0.00076295,-0.048981,-0.00015259,0.031281,-0.00015259,0.016022
0.03769,-0.13291,0.024262,-0.030976,0.011139,0.031586,0.0077821,-0.010834
0.045014,-0.12772,-0.0056458,-0.028534,0.04593,0.022126,0.0053407,-0.035248
0.048066,-0.13993,-0.019684,-0.036469,0.066682,0.0071717,-0.013581,-0.068818
0.054475,-0.12009,-0.023041,-0.041047,0.059052,0.015106,-0.014496,-0.089876
0.042267,-0.08957,-0.017853,-0.050507,0.062104,0.013886,-0.017548,-0.084077
0.019684,-0.03006,-0.066072,-0.078889,0.057832,0.009308,-0.030976,-0.074922
-0.009308,-0.014496,-0.07248,-0.083772,0.037079,0.0099184,-0.009308,-0.075227
-0.040742,0.011139,-0.086519,-0.09659,0.017548,0.011444,0.025788,-0.057221
-0.049287,-0.00076295,-0.090181,-0.082551,-0.0019837,0.0062562,0.022736,-0.019684
-0.033112,0.022736,-0.13443,-0.10239,-0.012665,-0.005951,-0.013275,-0.0019837
-0.048981,0.03769,-0.1268,-0.1149,-0.0010681,-0.036469,-0.024262,0.051118
-0.086824,0.060273,-0.10513,-0.12375,-0.02884,-0.043488,-0.016938,0.061494
-0.12833,0.074006,-0.090486,-0.11398,-0.050813,-0.014801,-0.014191,0.089876
-0.15396,0.051118,-0.063935,-0.099641,-0.048981,-0.0050355,0.017853,0.084688
-0.12772,-0.018769,-0.019684,-0.08072,-0.052033,0.028229,0.10758,0.082246
-0.11368,-0.048981,-0.012055,-0.069734,-0.028229,0.034028,0.092012,0.11643
-0.066072,-0.066987,-0.020294,-0.06424,-0.012665,0.068818,0.084688,0.090181
-0.0028992,-0.12406,-0.012665,-0.033417,-0.0090028,0.082551,0.094759,0.055695
0.018158,-0.13413,-0.010834,-0.03769,0.037079,0.059052,0.049897,0.055085
0.03769,-0.121,-0.0047303,-0.038911,0.061799,0.020294,-0.024872,-0.0019837
0.03006,-0.11246,-0.033112,-0.050202,0.069734,0.0028992,-0.06363,-0.040742
0.029755,-0.10391,-0.040742,-0.049592,0.071565,0.0022889,-0.033722,-0.039521
0.0077821,-0.073701,-0.062715,-0.075227,0.052949,0.010834,0.015717,-0.064546
0.0050355,-0.027314,-0.070649,-0.083162,0.032807,0.0041199,0.026703,-0.049287
-0.028229,0.038605,-0.10147,-0.093538,0.021515,-0.005951,0.0047303,-0.002594
-0.070039,0.070649,-0.12345,-0.099947,0.015717,-0.005951,0.020294,0.023651
-0.0795,0.070039,-0.10086,-0.10544,0.0019837,-0.0050355,0.024872,0.055695
-0.083772,0.098116,-0.11978,-0.11368,-0.011139,0.0022889,-0.00045777,0.068208
-0.09781,0.078279,-0.098421,-0.1149,-0.02884,0.0010681,-0.0086976,0.056306
-0.073396,-0.0086976,-0.085908,-0.094453,-0.035554,0.0080873,-0.002594,0.067292
-0.038911,-0.12375,-0.055085,-0.081025,-0.033112,0.00015259,0.0038148,0.061799
-0.030976,-0.032807,-0.040131,-0.076448,-0.016938,-0.015106,-0.0086976,0.019074
0.0032044,-0.098116,-0.015412,-0.052644,-0.0090028,-0.0013733,0.005951,0.0035096
0.03006,-0.10575,-0.0096132,-0.058747,-0.0019837,0.016632,0.014801,-0.0022889
0.034333,-0.11002,0.0086976,-0.040131,0.0206,0.015106,0.016938,-0.0206
0.050202,-0.12833,0.0047303,-0.028229,0.046845,0.011139,0.01297,-0.041047
0.061494,-0.13474,-0.016632,-0.042267,0.051118,0.0080873,0.0065614,-0.056001
0.056306,-0.10971,-0.023041,-0.048981,0.059663,-0.00076295,-0.0022889,-0.05478
0.036774,-0.085603,-0.027924,-0.054475,0.061799,-0.0019837,0.00076295,-0.061494
-0.0041199,-0.044099,-0.062409,-0.074922,0.050507,0.0099184,-0.0056458,-0.052949
-0.035554,-0.005951,-0.10697,-0.093233,0.035859,0.012665,-0.0013733,-0.043183
-0.059968,0.027619,-0.1091,-0.10788,0.010529,0.0038148,-0.0056458,-0.002594
-0.08011,0.047456,-0.1146,-0.10483,-0.016327,0.0047303,-0.009308,0.010834
-0.084993,0.067292,-0.11948,-0.10849,-0.040436,-0.0035096,-0.0044251,0.029755
-0.091402,0.060273,-0.11307,-0.1091,-0.047456,-0.014801,0.0013733,0.057221
-0.086824,0.054475,-0.088655,-0.092317,-0.056001,-0.0028992,0.010834,0.065156
-0.061189,0.030365,-0.084382,-0.088655,-0.045319,0.0077821,0.023346,0.062104
-0.018463,-0.023957,-0.056916,-0.074311,-0.028229,0.0090028,0.025177,0.059052
-0.00015259,-0.04593,-0.028534,-0.057527,-0.013581,0.005951,0.0071717,0.052033
0.020905,-0.091707,0.0022889,-0.044709,0.0086976,0.017243,0.011139,0.029145
0.027619,-0.1445,0.013275,-0.030365,0.02182,0.026093,0.0080873,-0.0074769
0.044404,-0.13779,-0.020294,-0.044099,0.039521,0.02121,0.0038148,-0.036774
0.035554,-0.12619,-0.0053407,-0.045624,0.063325,0.023346,-0.00076295,-0.0795
0.016022,-0.12558,0.0038148,-0.057527,0.065156,0.0206,-0.0035096,-0.076753
-0.0086976,-0.086519,-0.015412,-0.046845,0.061189,0.013275,-0.0090028,-0.043488
-0.02945,-0.052338,-0.06424,-0.066377,0.052033,0.015106,-0.00045777,0.026703
-0.015717,-0.024872,-0.069123,-0.092317,0.031281,0.0206,0.017853,0.07126
-0.029145,0.0032044,-0.10605,-0.10575,0.011139,0.019989,0.042267,0.037079
-0.08957,0.060273,-0.10941,-0.08896,0.0047303,0.016327,0.011139,0.02121
-0.055695,0.10117,-0.12711,-0.10239,-0.00045777,0.022431,0.027619,0.036164
-0.092317,0.062409,-0.12619,-0.1091,-0.016327,0.0086976,0.023041,0.076143
-0.062715,0.024262,-0.097505,-0.11582,-0.023651,-0.009308,0.0090028,0.069123
-0.066987,0.032197,-0.078889,-0.10361,-0.039521,-0.013581,0.016632,0.041657
-0.077058,0.031586,-0.077058,-0.1091,-0.0383,-0.0096132,0.0032044,0.033417
-0.099031,-0.014496,-0.048066,-0.070649,-0.029755,0.0086976,0.037385,0.034943
-0.095369,-0.058137,-0.0077821,-0.067292,-0.016327,0.019379,0.043488,0.011139
-0.02884,-0.12955,0.019989,-0.047761,-0.010529,0.036774,0.042267,0.045624
-0.023346,-0.13565,-0.0038148,-0.044709,0.02884,0.03006,0.025177,0.052949
-0.025483,-0.096284,-0.010529,-0.040436,0.06302,-0.02182,-0.063935,-0.02121
-0.014191,-0.086824,-0.010224,-0.037079,0.053559,-0.012665,-0.10391,-0.034333
-0.010224,-0.092622,-0.0019837,-0.061494,0.056916,0.048981,0.027924,-0.059663
-0.022431,-0.084382,-0.040436,-0.061189,0.056306,0.062104,0.069734,-0.043183
-0.02945,-0.07248,-0.050813,-0.082246,0.037079,0.052949,0.048066,-0.037079
0.010834,-0.040436,-0.098421,-0.066682,0.017853,0.037385,0.051423,0.0050355
-0.0041199,0.0074769,-0.10117,-0.10575,0.019684,-0.0041199,-0.0056458,0.033722
-0.023041,0.027924,-0.11826,-0.09659,-0.00015259,-0.032197,-0.016632,0.050202
-0.059663,0.066682,-0.1323,-0.12039,-0.018463,-0.026093,0.0086976,0.052033
-0.072786,0.07187,-0.10483,-0.1149,-0.024567,-0.0013733,0.03769,0.032807
-0.082856,0.054475,-0.1146,-0.1207,-0.041962,0.011444,0.059052,0.047761
-0.081331,0.08957,-0.10971,-0.11276,-0.038605,0.010224,0.037995,0.07248
-0.057221,0.0074769,-0.052644,-0.089265,-0.036774,0.00076295,0.035859,0.070039
-0.043488,-0.049897,-0.034333,-0.056611,-0.02945,0.014801,0.041962,0.04715
-0.0056458,-0.11093,0.0080873,-0.042878,-0.013275,0.031281,0.015106,0.017548
0.051118,-0.12894,0.017853,-0.033722,0.010834,0.01297,-0.018463,0.0013733
0.06302,-0.12985,0.0038148,-0.029145,0.04593,0.0010681,-0.041657,0.0096132
0.08957,-0.16648,-0.0065614,-0.022431,0.079194,0.0077821,-0.023651,-0.018158
0.062104,-0.1384,-0.034333,-0.049592,0.073701,-0.0032044,-0.023041,-0.099947
0.041657,-0.098116,-0.019684,-0.072175,0.073091,-0.0013733,-0.025483,-0.13016
0.025483,-0.086519,-0.045624,-0.069123,0.041657,0.022431,0.021515,-0.089265
-0.013581,-0.039521,-0.060578,-0.07248,0.034333,0.036164,0.018158,-0.084993
0.0065614,-0.023346,-0.080415,-0.079194,0.019379,0.026703,0.0099184,-0.091096
-0.0050355,0.0022889,-0.11093,-0.10391,-0.0041199,0.0090028,-0.0065614,-0.10452
-0.030365,0.0383,-0.12985,-0.10391,-0.0028992,-0.035248,-0.08957,-0.05478
-0.053864,0.052644,-0.12558,-0.11185,-0.013581,-0.027924,-0.1265,0.0068666
-0.087129,0.060273,-0.11063,-0.11154,-0.034638,0.0010681,0.00076295,0.02884
-0.098116,0.060273,-0.092317,-0.099336,-0.043793,0.0010681,0.026703,0.068208
-0.1146,0.056001,-0.055085,-0.087129,-0.039216,-0.0041199,0.0068666,0.11398
-0.0795,0.02182,-0.041047,-0.067597,-0.025483,-0.0099184,0.032197,0.1326
-0.081941,0.013581,-0.048981,-0.057527,-0.0028992,-0.0056458,0.034943,0.096284
-0.065766,-0.066072,-0.01236,-0.065766,0.0041199,0.0068666,0.052338,0.095979
-0.018158,-0.12558,0.009308,-0.051118,0.023041,0.023346,0.063325,0.11856
-0.016938,-0.13962,0.0035096,-0.047761,0.034333,0.027314,0.051728,0.073701
0.011139,-0.1561,-0.0086976,-0.030671,0.049287,0.039216,0.039826,0.016632
0.027924,-0.14176,-0.011749,-0.027314,0.043488,0.0383,0.061799,0.031586
0.032807,-0.099641,-0.02182,-0.051423,0.041962,0.036469,0.044099,0.024872
0.019989,-0.062715,-0.04715,-0.060883,0.033417,0.045014,0.0056458,-0.017243
-0.0096132,-0.039826,-0.072175,-0.078889,0.023651,0.019074,-0.013275,-0.02884
-0.047761,0.0077821,-0.11124,-0.099947,0.016632,-0.009308,-0.058137,-0.03769
0.0032044,0.037995,-0.11276,-0.12741,0.009308,-0.0056458,-0.023041,-0.013581
-0.034638,0.052338,-0.11887,-0.121,-0.009308,-0.0041199,0.019379,0.0035096
-0.042878,0.069123,-0.12436,-0.10788,-0.025483,-0.0035096,0.017548,0.0056458
-0.075227,0.084382,-0.1091,-0.1091,-0.034333,-0.012055,0.023957,0.010529
-0.1268,0.093538,-0.10452,-0.091096,-0.036469,-0.018769,0.03006,-0.018463
-0.10239,0.040131,-0.065156,-0.096284,-0.034638,-0.0053407,0.020905,-0.0074769
-0.045319,-0.034638,-0.022431,-0.078584,-0.023041,0.0083925,0.018158,0.042267
-0.0019837,-0.087739,-0.018769,-0.063325,-0.00015259,0.018463,0.010529,0.019379
0.025483,-0.14359,-0.00015259,-0.048676,0.017548,0.017853,-0.018769,-0.014496
0.05539,-0.23819,0.0083925,-0.012665,0.032197,0.0044251,-0.022126,-0.031891
0.034028,-0.12802,-0.012055,-0.035248,0.053559,0.00045777,-0.022431,-0.030365
-0.0053407,-0.090791,0.0080873,-0.024262,0.067292,0.0077821,-0.018158,-0.038911
0.011139,-0.12222,-0.0096132,-0.05539,0.067597,0.016632,-0.010834,-0.028534
-0.002594,-0.10605,-0.030976,-0.077668,0.049897,0.022431,-0.010224,-0.026398
-0.013581,-0.063325,-0.059052,-0.077668,0.029145,0.014801,0.00045777,-0.040436
-0.030671,0.0022889,-0.084077,-0.078279,0.012665,0.0047303,0.0056458,-0.018158
-0.071565,0.042267,-0.121,-0.095674,-0.0019837,-0.0080873,0.0016785,0.036774
-0.11002,0.070344,-0.1033,-0.11154,-0.013275,-0.00076295,0.019074,0.059968
-0.11948,0.074311,-0.11246,-0.11887,-0.020905,0.011139,0.081331,0.095979
-0.12161,0.08011,-0.11734,-0.12314,-0.016632,0.02945,0.084382,0.13535
-0.069429,0.040742,-0.10513,-0.099947,-0.041047,0.035248,0.058137,0.12772
-0.072786,0.04654,-0.10208,-0.099031,-0.048371,0.018158,0.024872,0.07248
-0.043793,0.0035096,-0.051118,-0.085603,-0.026703,0.0086976,-0.0080873,0.017548
0.0016785,-0.045319,-0.034333,-0.074922,-0.024872,-0.0041199,-0.011444,0.02121
0.015106,-0.079805,-0.012055,-0.057221,-0.0013733,-0.0053407,-0.00045777,0.019684
0.043183,-0.10178,-0.026093,-0.037385,0.013886,0.012665,0.013886,-0.02121
0.053254,-0.11856,0.019379,-0.036164,0.03769,0.024872,0.0038148,-0.028534
0.051423,-0.13596,0.015412,-0.027008,0.051118,0.024567,-0.031891,-0.055085
0.055085,-0.11429,-0.0099184,-0.031281,0.043183,0.018463,-0.039216,-0.07126
0.042878,-0.12772,-0.032807,-0.057527,0.06424,0.0077821,-0.018769,-0.0795
0.024872,-0.090181,-0.062409,-0.081331,0.063935,0.0065614,-0.0028992,-0.062715
-0.0056458,-0.038911,-0.074922,-0.10178,0.043793,0.0028992,-0.002594,-0.047761
-0.033112,-0.011749,-0.077058,-0.096895,0.016022,-0.0056458,0.0010681,-0.038911
-0.061189,0.021515,-0.1088,-0.098726,-0.00015259,0.0053407,0.051423,0.0090028
-0.067597,0.025483,-0.099031,-0.10575,-0.018463,0.014801,0.04654,0.022126
-0.056916,0.018158,-0.092317,-0.095064,-0.030671,-0.00076295,-0.0056458,0.023346
-0.075532,0.040436,-0.1146,-0.095369,-0.027008,-0.024872,-0.02884,0.022736
-0.081636,0.043183,-0.10544,-0.11124,-0.024567,-0.018769,-0.031891,0.038911
-0.078279,0.033722,-0.08957,-0.11032,-0.028534,-0.005951,-0.016938,0.029755
-0.029145,-0.0016785,-0.055085,-0.073396,-0.033417,0.00076295,0.0050355,0.062104
-0.00076295,-0.037995,-0.027924,-0.063325,-0.019074,-0.012055,0.013275,0.071565
0.009308,-0.074006,-0.00015259,-0.055695,0.0068666,-0.019989,0.005951,0.019684
0.030365,-0.10544,0.017548,-0.040131,0.029755,0.0099184,0.015412,0.033722
0.013275,-0.11826,-0.0056458,-0.04654,0.051118,0.015106,0.041047,0.019684
-0.02945,-0.12253,-0.0099184,-0.047456,0.051423,0.013275,0.059968,-0.010834
-0.034333,-0.1207,-0.015412,-0.053254,0.043488,0.038911,0.044099,-0.018158
-0.025788,-0.10452,-0.020294,-0.040436,0.043183,0.045014,0.026093,-0.016632
-0.030365,-0.064546,-0.059968,-0.059358,0.051728,0.037385,-0.0083925,-0.0090028
-0.084382,0.0053407,-0.075227,-0.079194,0.041962,0.034638,-0.023651,0.0016785
-0.089876,0.043488,-0.10422,-0.084993,0.0019837,0.040436,0.043793,0.032197
-0.030976,0.011139,-0.10666,-0.093538,-0.010529,0.032807,0.04593,0.031281
-0.042878,0.051728,-0.12284,-0.11643,-0.01236,0.014496,0.0080873,0.035554
-0.060883,0.066682,-0.11826,-0.12528,-0.024262,-0.0053407,0.0038148,0.023957
-0.083467,0.05539,-0.081025,-0.11124,-0.044404,-0.005951,-0.00045777,0.045624
-0.10605,0.016022,-0.081025,-0.087739,-0.058442,0.010224,-0.0050355,0.039826
-0.064546,0.010224,-0.075837,-0.093538,-0.051728,0.016632,0.015412,0.0086976
-0.043793,-0.024567,-0.040131,-0.074311,-0.030365,-0.005951,0.074006,0.025177
-0.031586,-0.065766,-0.026703,-0.056306,0.0016785,-0.0074769,0.028229,0.00045777
-0.0074769,-0.072175,-0.0083925,-0.050507,0.015106,0.0019837,-0.027008,-0.0096132
0.035248,-0.13169,0.022736,-0.032502,0.02945,-0.025788,-0.086213,-0.023651
0.055085,-0.14206,-0.0065614,-0.035248,0.045624,-0.024872,-0.14267,-0.043793
0.034028,-0.12345,-0.010224,-0.028534,0.065156,0.019989,-0.0383,-0.049897
0.02121,-0.096895,-0.026703,-0.065156,0.072175,0.040436,0.11917,-0.016938
0.030365,-0.092927,-0.032197,-0.058442,0.06424,0.019074,0.059052,-0.009308
0.025788,-0.059358,-0.062104,-0.069429,0.035554,0.017243,0.026703,-0.02884
0.0065614,-0.019989,-0.090791,-0.084993,0.022736,0.027924,0.02182,-0.04654
-0.036469,0.0077821,-0.10544,-0.10788,0.0038148,0.034943,0.019684,-0.0019837
-0.04593,0.033722,-0.1149,-0.10666,-0.022126,0.033417,0.034333,0.057527
-0.042878,0.067292,-0.11917,-0.103,-0.032502,0.0028992,0.018769,0.070344
-0.059968,0.11063,-0.11887,-0.11795,-0.026703,-0.023651,0.0016785,0.069429
-0.067597,0.028534,-0.10605,-0.099031,-0.033417,-0.0096132,-0.0041199,0.087434
-0.069123,0.015717,-0.099031,-0.10483,-0.029755,-0.0071717,0.013886,0.070344
-0.066682,-0.010224,-0.056611,-0.087739,-0.022736,-0.0077821,0.002594,0.031281
-0.053864,-0.042573,-0.014801,-0.068208,-0.018463,-0.014801,0.0096132,0.02121
-0.026398,-0.091402,0.0071717,-0.046845,0.0016785,-0.0071717,0.018158,0.016632
-0.010529,-0.10422,-0.0077821,-0.040742,0.019989,0.012055,0.012665,0.005951
-0.002594,-0.11734,-0.016022,-0.051728,0.051118,0.015412,0.0038148,-0.0086976
0.019379,-0.11063,-0.020294,-0.057221,0.050507,0.01297,0.00076295,-0.014191
0.086213,-0.11582,-0.015717,-0.057527,0.044404,0.03006,0.0071717,-0.019074
0.043793,-0.13138,0.0038148,-0.058747,0.052338,0.035248,0.0074769,-0.019379
0.028229,-0.13138,-0.033112,-0.051728,0.041352,0.022736,0.019684,-0.02121
-0.002594,-0.071565,-0.075837,-0.056916,0.034028,0.018463,0.0071717,-0.066072
-0.050813,0.029145,-0.08896,-0.077363,0.030976,-0.0041199,-0.034333,-0.087129
-0.092317,0.047456,-0.11246,-0.10117,0.020905,-0.016022,-0.027314,-0.057527
-0.08072,0.044099,-0.11307,-0.11093,0.011444,-0.025788,-0.017243,-0.015717
-0.077363,0.052338,-0.088045,-0.099031,-0.022126,-0.01297,-0.0041199,0.033417
-0.11215,0.051728,-0.10819,-0.11063,-0.039521,0.00045777,0.018769,0.059663
-0.10422,0.05417,-0.10666,-0.11185,-0.045319,-0.0041199,0.0099184,0.065461
-0.081331,0.044099,-0.090791,-0.099336,-0.049897,-0.016938,0.0032044,0.072786
-0.060883,0.0035096,-0.06424,-0.081331,-0.044709,0.0013733,0.010834,0.077974
-0.021515,-0.025788,-0.037995,-0.073701,-0.015412,0.011444,0.019074,0.078584
-0.010224,-0.073396,-0.002594,-0.059358,-0.0010681,0.023041,0.029145,0.10544
0.0068666,-0.10605,0.0071717,-0.048371,0.010834,0.024567,0.027619,0.085603
0.027008,-0.13901,0.005951,-0.030365,0.031891,0.026398,0.011749,0.0096132
0.019989,-0.14755,0.0062562,-0.045319,0.060273,0.025177,0.026703,-0.040436
0.0090028,-0.13657,-0.01297,-0.055695,0.065156,0.039216,0.041962,-0.074922
0.027314,-0.11429,-0.022431,-0.044099,0.056916,0.062715,0.069734,-0.07126
0.079194,-0.090791,-0.044404,-0.059052,0.036164,0.069429,0.079805,-0.083467
-0.00045777,-0.036469,-0.083467,-0.065461,0.043488,0.034333,0.029755,-0.11337
-0.073396,0.063325,-0.11887,-0.10666,0.037385,-0.020294,-0.025483,-0.10208
-0.11002,0.072175,-0.11307,-0.12711,0.0028992,-0.02945,-0.02884,-0.034638
-0.12406,0.07248,-0.11673,-0.12253,-0.026398,-0.03006,-0.082856,0.043183
-0.12558,0.056306,-0.10758,-0.12314,-0.048981,-0.016022,-0.10758,0.098116
-0.10056,0.040436,-0.094759,-0.10269,-0.061189,0.014801,0.03769,0.13443
-0.087739,-0.043488,-0.088655,-0.090486,-0.048676,-0.0038148,0.067903,0.12528
-0.079805,-0.018158,-0.091096,-0.10941,-0.0206,-0.027924,0.024262,0.090791
-0.027314,0.0071717,-0.041962,-0.077058,-0.02121,-0.017548,0.045319,0.12009
-0.00045777,-0.052338,-0.019074,-0.068818,-0.01236,0.016938,0.041657,0.077363
0.010529,-0.07187,-0.00076295,-0.056306,-0.0022889,0.010224,0.048066,0.021515
0.052949,-0.11368,0.005951,-0.034943,0.013886,0.0062562,0.013581,-0.02884
0.057221,-0.12589,0.009308,-0.036469,0.037385,-0.00076295,0.0019837,-0.051118
0.077974,-0.15702,-0.0383,-0.020905,0.051423,0.0047303,-0.0083925,-0.042573
0.099641,-0.17075,-0.02182,-0.005951,0.068208,0.011444,-0.015717,-0.073091
0.095979,-0.1564,-0.036774,-0.041352,0.084382,0.00076295,-0.025483,-0.14145
0.032197,-0.037385,-0.063325,-0.067597,0.074617,-0.0038148,-0.02945,-0.15763
-0.0044251,0.041352,-0.084993,-0.093233,0.053559,0.00076295,-0.034333,-0.09781
-0.040436,0.05417,-0.10727,-0.10544,0.025788,0.010834,-0.011444,-0.030365
-0.0071717,0.057527,-0.11521,-0.12558,-0.010224,0.019989,0.002594,0.020905
-0.036774,0.050202,-0.11124,-0.11917,-0.036469,0.010224,-0.0035096,0.063325
-0.085603,0.051118,-0.11887,-0.12528,-0.04654,-0.0053407,0.011749,0.10361
-0.1207,0.051423,-0.095064,-0.11582,-0.048981,-0.0050355,0.026093,0.12924
-0.15457,0.049592,-0.083467,-0.11093,-0.053864,-0.0016785,0.022736,0.10697
-0.1387,0.00045777,-0.037995,-0.08957,-0.03769,0.023957,0.037385,0.10391
-0.1268,-0.041657,-0.041962,-0.053559,-0.036469,0.05478,0.074617,0.098421
-0.084077,-0.050202,-0.0065614,-0.04715,-0.027314,0.062104,0.084077,0.034028
-0.048676,-0.058442,0.018158,-0.026398,0.0010681,0.046235,0.08011,-0.023346
0.033417,-0.16159,0.009308,-0.017548,0.038911,0.023346,0.022736,-0.022431
0.048371,-0.15763,0.0019837,-0.048676,0.075837,-0.0032044,-0.018769,-0.07126
0.02945,-0.10208,-0.026093,-0.048981,0.081941,-0.017853,-0.016632,-0.051728
0.030976,-0.103,-0.026703,-0.057527,0.075227,-0.011139,-0.031281,-0.026703
0.022736,-0.057527,-0.050813,-0.064546,0.049897,-0.011139,-0.02121,0.017853
0.0080873,-0.040436,-0.07187,-0.077668,0.035248,0.0047303,-0.0074769,0.0056458
-0.0074769,-0.013581,-0.097505,-0.10056,0.017548,0.0206,-0.00015259,-0.04593
-0.031586,0.023957,-0.10758,-0.099947,0.0038148,0.0083925,-0.00045777,-0.035248
-0.043183,0.047456,-0.13321,-0.11582,-0.013275,0.016327,-0.017548,-0.013581
-0.052033,0.051728,-0.13474,-0.11368,-0.031586,0.016327,-0.012055,0.0050355
-0.067597,0.04593,-0.10666,-0.10758,-0.033417,-0.0010681,-0.014191,-0.00015259
-0.074922,0.00015259,-0.058137,-0.095674,-0.022431,-0.014801,-0.0044251,0.034028
-0.059358,-0.050507,-0.041047,-0.070344,-0.020294,-0.025483,0.040436,0.072786
-0.042573,-0.039826,-0.066682,-0.070954,-0.020294,-0.016938,0.055085,0.043793
-0.029755,-0.035859,-0.031586,-0.075532,0.0016785,-0.013275,0.031891,0.059663
-0.013275,-0.081331,-0.022431,-0.067292,0.0074769,0.0028992,0.0016785,0.087739
0.0071717,-0.073701,-0.021515,-0.050813,0.0065614,0.014801,0.0019837,0.027619
0.019989,-0.086824,-0.016022,-0.041047,0.019379,0.026398,0.015717,-0.009308
0.07126,-0.12985,0.032807,-0.018158,0.053254,0.019989,0.023957,-0.025483
0.037079,-0.11215,-0.026398,-0.048371,0.068513,0.0062562,0.011139,-0.063325
-0.010834,-0.070954,-0.032197,-0.068513,0.067903,0.014801,0.015106,-0.08957
-0.017548,-0.042573,-0.057221,-0.0795,0.034333,0.04715,0.027619,-0.044709
-0.035248,-0.033722,-0.08835,-0.081636,0.017243,0.050507,0.027924,-0.0035096
-0.057832,0.0056458,-0.099336,-0.10269,0.0065614,0.019989,-0.0053407,-0.040436
-0.10605,0.053254,-0.1268,-0.11673,-0.0074769,0.0019837,-0.0071717,-0.035859
-0.11856,0.058137,-0.12253,-0.11704,-0.02121,-0.0013733,0.0010681,0.049592
-0.13443,0.058442,-0.097505,-0.11368,-0.022126,-0.0032044,0.019074,0.1091
-0.099031,0.023957,-0.050507,-0.089876,-0.035859,-0.0062562,0.044404,0.11276
-0.062715,0.0019837,-0.04593,-0.080415,-0.039521,-0.013581,0.022736,0.11307
-0.02884,-0.026093,-0.072786,-0.076753,-0.025177,-0.0099184,0.010529,0.098421
-0.010224,-0.039521,-0.078889,-0.092317,-0.016938,-0.00015259,0.0099184,0.088045
-0.0019837,-0.060273,-0.054475,-0.069123,-0.0035096,-0.00015259,0.0010681,0.055085
0.022126,-0.095369,-0.0086976,-0.052949,-0.00076295,-0.0080873,-0.013581,0.013886
0.054475,-0.11185,0.00015259,-0.032502,0.022736,-0.0053407,-0.035859,-0.025788
0.050202,-0.103,-0.0068666,-0.036469,0.044099,0.016022,0.0077821,-0.051728
0.041657,-0.10269,-0.0053407,-0.039521,0.063325,0.026093,0.039216,-0.077668
0.018158,-0.10239,-0.030365,-0.041657,0.06302,0.026398,0.015412,-0.08072
0.0038148,-0.10758,-0.026093,-0.059663,0.05417,0.010529,-0.0028992,-0.073701
-0.022431,-0.065766,-0.065766,-0.092927,0.047456,0.010224,-0.0074769,-0.05478
-0.016327,-0.036774,-0.072786,-0.087129,0.027314,0.033112,0.01297,-0.025177
-0.030671,0.0053407,-0.10269,-0.096284,-0.0035096,0.040131,0.015106,-0.015717
-0.056611,0.054475,-0.11765,-0.11032,-0.018769,0.040131,0.018769,-0.019074
-0.095064,0.076753,-0.11521,-0.10849,-0.034638,0.016938,0.017243,0.015412
-0.11154,0.057527,-0.12497,-0.10971,-0.039216,-0.0050355,0.023346,0.076143
-0.14694,0.089876,-0.10086,-0.10727,-0.030671,-0.0056458,0.011749,0.092622
-0.13016,0.068208,-0.087434,-0.11276,-0.028229,-0.0047303,0.0065614,0.093843
-0.084382,0.010529,-0.059358,-0.083467,-0.042573,-0.005951,0.017548,0.11673
-0.039521,-0.035554,-0.04654,-0.076753,-0.028229,0.0068666,0.014191,0.096284
-0.0041199,-0.083467,-0.0086976,-0.051118,-0.0041199,0.010834,0.0032044,0.02884
0.053559,-0.16617,0.0038148,-0.036469,0.0010681,0.019989,0.026093,0.0016785
0.091402,-0.21103,0.0016785,-0.033722,0.033417,0.022431,0.024262,-0.066682
0.06424,-0.11978,0.0041199,-0.045624,0.06424,-0.0013733,0.019074,-0.10513
0.04654,-0.13077,-0.011749,-0.051728,0.056306,0.0083925,0.023957,-0.099641
0.029755,-0.093538,-0.0062562,-0.055695,0.065461,0.017243,0.013886,-0.082856
0.032807,-0.074922,-0.03769,-0.048981,0.055695,0.0068666,-0.013581,-0.081331
-0.015717,-0.030976,-0.084077,-0.08896,0.046845,0.013886,-0.013581,-0.061494
-0.029755,0.0022889,-0.092927,-0.093843,0.024262,0.016938,0.0047303,-0.017243
-0.045014,0.01236,-0.11673,-0.10086,0.0010681,0.016327,0.0038148,0.057832
-0.067292,0.036164,-0.11978,-0.097505,-0.011444,0.013275,0.0071717,0.076143
-0.08835,0.068208,-0.11856,-0.103,-0.018463,-0.011444,-0.0086976,0.074311
-0.074617,0.053254,-0.091402,-0.096895,-0.027314,-0.027619,-0.012055,0.037079
-0.074922,0.038605,-0.079194,-0.10117,-0.030976,-0.024872,-0.013581,0.016632
-0.076143,0.05539,-0.095979,-0.10117,-0.029755,-0.030976,-0.018463,0.010529
-0.081331,0.005951,-0.052949,-0.092317,-0.029755,0.0044251,0.050507,0.05417
-0.058747,-0.044709,-0.036774,-0.08896,-0.023041,0.048981,0.09781,0.080415
-0.025788,-0.072786,-0.015412,-0.064851,0.005951,0.048066,0.065156,0.083772
-0.015717,-0.10697,-0.0035096,-0.042573,0.011749,0.025177,0.00076295,0.049287
-0.0010681,-0.11032,0.005951,-0.036774,0.027924,0.009308,-0.031281,0.0035096
0.0068666,-0.11002,0.0056458,-0.038911,0.051728,-0.0028992,-0.019074,0.013275
0.0010681,-0.062409,0.002594,-0.051118,0.056001,0.022126,0.070344,0.043793
0.024872,-0.11032,-0.0062562,-0.038605,0.059052,0.040131,0.0795,0.031891
0.03769,-0.11185,-0.058137,-0.056306,0.061189,0.013275,0.0038148,-0.0041199
0.12589,-0.05478,-0.068208,-0.059663,0.059968,-0.022126,-0.037079,-0.022126
-0.0044251,-0.0044251,-0.11856,-0.0972,0.031281,-0.014801,-0.084077,-0.016632
-0.072175,0.030671,-0.12497,-0.11551,-0.0050355,0.034638,0.047456,-0.00076295
-0.10178,0.049287,-0.11704,-0.10727,-0.028534,0.044404,0.09659,0.032197
-0.10239,0.046235,-0.11612,-0.11643,-0.027314,0.0032044,0.015717,0.0090028
-0.1384,0.053254,-0.098726,-0.10147,-0.028534,-0.013581,0.0019837,-0.0090028
-0.1033,0.040742,-0.094453,-0.11368,-0.037079,-0.034943,-0.070649,0.0041199
-0.060578,0.0032044,-0.058747,-0.079194,-0.030671,-0.020905,-0.11368,-0.009308
-0.034638,-0.03769,-0.036469,-0.059358,-0.013275,0.0086976,0.013275,-0.017548
-0.0068666,-0.058442,-0.038911,-0.075227,-0.0047303,0.022126,0.041657,-0.026398
0.041657,-0.13443,0.020905,-0.054475,-0.0083925,0.041047,0.03769,-0.002594
0.086213,-0.18082,0.016327,-0.040131,0.0090028,0.031281,0.034333,-0.023346
0.041352,-0.13382,-0.014801,-0.044709,0.045014,0.0086976,0.019074,-0.045319
0.015412,-0.11246,-0.014191,-0.040131,0.05417,0.005951,0.010529,-0.018463
-0.031891,-0.06363,-0.053864,-0.054475,0.05539,0.018463,-0.0053407,-0.022431
-0.063935,-0.046235,-0.034638,-0.059358,0.04593,0.027314,0.011749,0.0041199
-0.069429,-0.057832,-0.044709,-0.070954,0.043488,0.016938,0.017853,0.059052
-0.092317,0.01236,-0.10727,-0.098421,0.036774,0.011139,0.030976,0.027619
-0.1268,0.04654,-0.11246,-0.11154,0.020905,0.011139,0.037385,-0.018769
-0.12467,0.057527,-0.098116,-0.11795,-0.00045777,0.014191,0.035248,-0.024872
-0.092927,0.073396,-0.10849,-0.10269,-0.022431,0.014801,0.06302,0.0032044
-0.070954,0.042267,-0.11643,-0.11734,-0.033112,0.0090028,0.07126,0.019379
-0.030976,0.025788,-0.076143,-0.10056,-0.044404,0.0050355,0.040436,0.067903
-0.0096132,0.019989,-0.078584,-0.092622,-0.046845,-0.00076295,0.016632,0.089265
0.0035096,-0.035554,-0.042573,-0.074617,-0.019379,-0.0071717,-0.00076295,0.069734
0.034028,-0.050507,-0.05417,-0.054475,-0.0080873,-0.00076295,-0.00076295,0.068513
0.04654,-0.042267,-0.038605,-0.051423,0.0050355,-0.009308,-0.013275,0.033417
0.078584,-0.12833,-0.0083925,-0.036774,0.022736,-0.013886,-0.031281,0.0047303
0.081331,-0.16587,0.032197,-0.026093,0.031281,0.0044251,-0.014496,-0.026703
0.046235,-0.14664,0.0074769,-0.032502,0.059358,0.016327,-0.010224,-0.048676
0.03769,-0.11551,-0.0206,-0.052949,0.069734,0.015106,-0.01236,-0.04593
0.037079,-0.10361,-0.023957,-0.051423,0.062104,0.025483,0.0019837,-0.046845
0.01297,-0.087739,-0.030671,-0.043488,0.059968,0.01297,0.0013733,-0.051118
-0.030976,-0.020905,-0.081941,-0.068208,0.05539,-0.0056458,0.0010681,-0.029755
-0.084993,0.031586,-0.10758,-0.099031,0.034943,0.01236,0.0041199,0.00076295
-0.10391,0.057527,-0.10727,-0.10941,-0.0044251,0.015106,0.02182,0.009308
-0.12833,0.06424,-0.11551,-0.12253,-0.023346,0.0032044,0.013275,0.03769
-0.1326,0.051728,-0.1088,-0.12894,-0.035248,0.00015259,0.018158,0.059968
-0.14633,0.089265,-0.12131,-0.13138,-0.045319,0.015106,0.039216,0.086519
-0.10758,0.044099,-0.10147,-0.094759,-0.06363,0.037385,0.070344,0.10575
-0.091707,0.012055,-0.072175,-0.08896,-0.053864,0.023957,0.040131,0.11246
-0.048981,-0.016327,-0.0383,-0.084993,-0.023041,0.0071717,0.005951,0.10697
-0.020294,-0.057527,-0.015412,-0.060578,-0.014801,0.020294,-0.00015259,0.095674
0.019379,-0.10269,-0.014191,-0.043488,0.0050355,0.025483,0.002594,0.077974
0.055695,-0.13382,0.00076295,-0.043183,0.033112,-0.00015259,0.0010681,0.028229
0.060578,-0.1268,-0.00076295,-0.040742,0.045319,-0.0016785,0.02884,-0.028229
0.059968,-0.1326,-0.0038148,-0.0383,0.050507,0.027924,0.077363,-0.062104
0.063935,-0.12741,-0.0047303,-0.038911,0.05539,0.049287,0.078584,-0.10727
0.073701,-0.14023,0.0053407,-0.041352,0.059663,0.03006,0.0090028,-0.13748
0.040131,-0.090791,-0.051118,-0.07248,0.056306,-0.0096132,-0.059358,-0.12375
-0.013581,-0.012055,-0.076753,-0.077058,0.040131,-0.015717,-0.055085,-0.096895
-0.051118,0.026398,-0.11307,-0.099336,0.023041,-0.023957,-0.036774,-0.058747
-0.0795,0.056611,-0.12161,-0.11124,0.013581,-0.023957,-0.018158,-0.019074
-0.081941,0.058137,-0.11612,-0.1091,-0.013275,-0.015717,0.019684,0.0099184
-0.095979,0.057527,-0.12863,-0.121,-0.042573,-0.014191,0.014801,0.034943
-0.11612,0.013886,-0.10025,-0.10849,-0.04654,-0.0035096,-0.0032044,0.045319
-0.10758,-0.030671,-0.098421,-0.103,-0.042573,0.009308,0.002594,0.062409
-0.0795,0.035859,-0.073396,-0.092927,-0.035554,0.010834,-0.013581,0.076143
-0.02884,-0.042267,-0.033112,-0.075532,-0.042878,0.016327,-0.031891,0.069123
-0.0090028,-0.059358,-0.029145,-0.05539,-0.010529,0.019989,0.017243,0.034943
0.052949,-0.068208,-0.012665,-0.042267,0.0206,0.0065614,0.022126,0.041657
0.019379,-0.092927,0.0099184,-0.044404,0.029145,0.018158,0.019684,0.014191
0.0038148,-0.12009,0.0016785,-0.023041,0.039826,0.041352,0.050507,0.015106
0.010834,-0.08957,-0.018769,-0.050202,0.059663,0.015106,0.022126,-0.030976
-0.0068666,-0.082551,-0.024567,-0.058747,0.067597,0.0022889,0.002594,-0.059968
0.0071717,-0.098116,-0.021515,-0.049287,0.05539,0.014191,-0.0068666,-0.051118
0.00076295,-0.069429,-0.06302,-0.064851,0.052949,0.0206,0.00045777,-0.058747
-0.040742,-0.02945,-0.082246,-0.088655,0.033417,0.019074,0.010529,-0.02884
-0.073701,0.032197,-0.096895,-0.10086,0.010529,0.0099184,0.012665,0.024872
-0.059968,0.055085,-0.11032,-0.10056,-0.010834,0.0083925,0.037385,0.059358
-0.05478,0.032502,-0.10208,-0.10513,-0.014801,0.010224,0.049592,0.069734
-0.081025,0.027619,-0.1088,-0.11307,-0.013275,0.0028992,0.039216,0.073396
-0.083162,0.02182,-0.10269,-0.1088,-0.02945,-0.011139,0.018769,0.11368
-0.082246,0.047456,-0.10056,-0.10361,-0.035248,-0.0068666,0.013581,0.12985
-0.074922,0.02121,-0.056611,-0.089876,-0.032502,-0.00076295,0.014801,0.10483
-0.078279,-0.019379,-0.025788,-0.084993,-0.030976,0.0028992,0.013581,0.095369
-0.029755,-0.095369,0.0080873,-0.034638,-0.012665,0.0099184,0.014801,0.06363
0.02884,-0.10605,-0.002594,-0.031586,0.021515,0.018463,0.020294,-0.0019837
0.061494,-0.11246,-0.018463,-0.039216,0.045014,0.036164,0.024872,-0.036774
0.075227,-0.1088,-0.018158,-0.0383,0.0383,0.050813,0.0077821,-0.087739
0.06424,-0.083772,-0.022126,-0.039216,0.040131,0.023957,-0.026398,-0.15213
0.050202,-0.12161,-0.014801,-0.059663,0.04593,0.016327,-0.019379,-0.10697
0.027924,-0.086824,-0.047761,-0.065156,0.056001,0.032807,0.012665,-0.054475
-0.02121,-0.032197,-0.063935,-0.0795,0.04593,0.040131,0.016632,-0.020294
-0.054475,-0.01297,-0.085298,-0.08957,0.027314,0.014801,-0.0019837,-0.039521
-0.068818,-0.0028992,-0.086824,-0.096284,0.015717,0.0044251,0.0032044,0.00045777
-0.067292,0.041352,-0.1091,-0.091402,0.017243,-0.023346,0.0019837,0.041657
-0.08896,0.096284,-0.12497,-0.1268,0.0056458,-0.03769,-0.016327,0.048066
-0.10513,0.051423,-0.1149,-0.12741,-0.027314,-0.011444,0.0080873,0.092927
-0.10788,0.05417,-0.10117,-0.12467,-0.055695,0.00045777,0.035248,0.13413
-0.099336,0.033112,-0.077058,-0.10971,-0.052644,-0.0028992,0.033417,0.11643
-0.05478,-0.026398,-0.050813,-0.081331,-0.043183,0.013275,0.045624,0.056306
-0.023346,-0.061799,-0.037079,-0.065461,-0.02884,0.027314,0.033417,0.025483
-0.0065614,-0.082246,-0.01297,-0.034333,0.0071717,0.017853,0.035554,0.010529
0.022126,-0.085603,0.0019837,-0.024567,0.029755,0.020294,0.035859,-0.0090028
0.016022,-0.11276,0.013886,-0.039216,0.027008,0.03006,0.022126,-0.02945
-0.0047303,-0.12192,0.0016785,-0.05417,0.048371,0.031281,0.0077821,-0.059052
0.005951,-0.12467,-0.016327,-0.050202,0.051118,0.030976,0.0056458,-0.028229
0.04715,-0.1207,-0.022126,-0.052338,0.052949,0.019989,-0.0035096,-0.015412
0.059358,-0.10452,-0.043793,-0.051118,0.051118,0.0047303,-0.016632,-0.038911
-0.011139,-0.059663,-0.077363,-0.077668,0.042267,0.0041199,-0.020905,-0.025483
-0.038911,0.009308,-0.10269,-0.097505,0.033417,-0.012665,-0.00045777,-0.0096132
-0.037385,0.026703,-0.11887,-0.11643,0.016632,-0.0019837,0.019379,0.0080873
-0.048981,0.039216,-0.12253,-0.1149,-0.0080873,-0.0077821,-0.017243,0.024262
-0.059052,0.046235,-0.12253,-0.10269,-0.027619,-0.013581,-0.014496,0.039521
-0.088045,0.043183,-0.10666,-0.099947,-0.038605,-0.0099184,-0.0019837,0.049592
-0.10452,0.049897,-0.09659,-0.11368,-0.039521,0.0071717,0.0050355,0.035554
-0.084993,0.011444,-0.052033,-0.08835,-0.038605,0.011139,0.018158,0.033417
-0.064546,-0.030671,-0.016632,-0.046845,-0.014496,-0.0010681,0.0032044,0.029145
-0.041657,-0.0383,-0.034943,-0.062715,0.015412,-0.0022889,-0.0022889,-0.0074769
-0.0047303,-0.081941,-0.014191,-0.055085,0.018769,-0.0013733,0.0074769,-0.012665
0.036774,-0.12802,0.00045777,-0.050202,0.023041,0.01297,0.0068666,-0.022431
0.046235,-0.12253,-0.0074769,-0.05417,0.036774,0.027008,0.02121,-0.050813
0.030976,-0.11063,-0.012055,-0.053254,0.042267,0.018463,-0.0080873,-0.065461
0.031891,-0.10971,-0.023957,-0.057221,0.047761,0.015106,0.0016785,-0.041352
0.033722,-0.098116,-0.023957,-0.040742,0.044099,0.0080873,0.017548,0.0096132
-0.014191,-0.04654,-0.04654,-0.055695,0.051423,0.002594,0.0028992,0.02121
-0.025177,-0.01297,-0.083162,-0.094759,0.030976,0.011444,0.011444,0.016022
-0.044709,0.03006,-0.12528,-0.11765,0.012665,0.0013733,0.014801,0.039216
-0.12314,0.12711,-0.24125,-0.15854,0.0032044,0.0080873,0.022126,0.059663
-0.16861,0.18479,-0.13626,-0.13687,-0.034638,0.020294,0.040436,0.092317
-0.081025,0.0071717,-0.030365,-0.082856,-0.11826,-0.0053407,0.051423,0.16068
-0.093233,0.0062562,-0.058747,-0.08896,-0.052644,0.0099184,0.056306,0.10178
-0.08072,0.0096132,-0.062409,-0.08957,-0.011139,0.017853,0.051118,0.081636
-0.056916,-0.017853,-0.042573,-0.085603,-0.024567,0.035554,0.055085,0.063935
-0.02945,-0.070039,-0.022431,-0.060273,-0.0047303,0.051423,0.043488,0.03006
-0.0032044,-0.10391,-0.016022,-0.053254,0.025177,0.037079,0.005951,-0.0022889
0.089265,-0.13443,0.010529,-0.032807,0.017548,0.023041,0.0028992,-0.016938
0.090181,-0.14481,0.0071717,-0.035248,0.03006,0.030976,-0.0019837,-0.049592
0.061799,-0.15366,0.032502,-0.027619,0.052338,0.024872,-0.015106,-0.066072
0.066682,-0.14847,-0.014191,-0.01236,0.063935,0.017243,0.00076295,-0.056001
0.066682,-0.11002,-0.044709,-0.054475,0.079194,0.011139,0.0077821,-0.065461
-0.00015259,-0.06424,-0.048371,-0.066987,0.087739,-0.0047303,-0.027619,-0.081331
-0.029755,-0.036164,-0.070649,-0.074922,0.052338,-0.00015259,-0.025177,-0.08957
-0.033112,-0.0068666,-0.095064,-0.08835,0.029755,0.0050355,-0.04654,-0.073701
-0.074617,0.051728,-0.11276,-0.11673,0.010529,-0.0062562,-0.083772,-0.074617
-0.10117,0.07126,-0.13138,-0.12741,-0.02884,0.018463,0.03769,-0.033417
-0.081025,0.073396,-0.12375,-0.11337,-0.038605,0.0028992,0.085298,0.025177
-0.084382,0.075837,-0.10513,-0.10391,-0.04593,-0.013886,-0.0080873,0.081331
-0.086213,0.015106,-0.068818,-0.08896,-0.026703,-0.043793,-0.077974,0.12009
-0.056611,-0.027619,-0.062409,-0.082551,-0.018463,-0.059968,-0.12253,0.10849
-0.0010681,-0.062104,-0.040742,-0.074922,-0.024567,0.0083925,0.015106,0.092317
0.0019837,-0.050813,-0.034028,-0.066377,-0.024567,0.038911,0.12467,0.078584
0.02884,-0.10239,0.0080873,-0.025177,-0.0022889,0.0083925,0.032197,0.040436
0.027924,-0.1146,-0.04715,-0.044099,0.02121,0.012055,0.041047,-0.031586
0.019684,-0.092927,-0.010224,-0.050507,0.055085,0.00076295,0.043793,-0.058137
-0.019074,-0.088655,-0.020294,-0.067292,0.046845,0.011139,0.018769,-0.057221
-0.037385,-0.090181,-0.016022,-0.057527,0.037385,0.048066,0.042267,-0.039521
-0.014191,-0.099336,-0.0041199,-0.049287,0.024872,0.076448,0.055085,-0.002594
-0.018158,-0.074922,-0.037079,-0.050202,0.037079,0.045319,0.019684,-0.038911
-0.059358,-0.014496,-0.093233,-0.087129,0.045319,-0.019989,-0.028534,-0.045624
-0.061799,0.002594,-0.10086,-0.11368,0.024872,-0.013581,-0.0071717,0.022736
-0.074617,0.018158,-0.085298,-0.085603,0.0086976,0.012665,0.032807,0.049287
-0.094148,0.066682,-0.12131,-0.10575,0.0080873,-0.0050355,0.033722,0.059663
-0.095674,0.074006,-0.13687,-0.12589,-0.013275,0.005951,0.048981,0.10483
-0.094148,0.054475,-0.097505,-0.10758,-0.033112,0.024567,0.053254,0.13901
-0.099641,0.045624,-0.094453,-0.10788,-0.046845,0.019989,0.027924,0.10056
-0.08835,0.037079,-0.082246,-0.096895,-0.031586,0.01236,0.033112,0.069734
-0.017548,0.018463,-0.03769,-0.064546,-0.024262,0.023041,0.03006,0.051728
0.020905,-0.076753,-0.020905,-0.060883,-0.0056458,0.010834,0.0053407,-0.0071717
0.04715,-0.12497,-0.0096132,-0.043183,0.013886,-0.01297,-0.028229,-0.022126
0.07248,-0.17136,0.014191,-0.039216,0.031891,-0.017243,-0.040742,-0.026398
0.07187,-0.11002,0.02182,-0.020294,0.047456,-0.00076295,-0.025177,-0.051423
0.066072,-0.091402,-0.013886,-0.036774,0.063325,0.011444,-0.016327,-0.061799
0.062409,-0.11978,-0.029755,-0.055085,0.065766,0.0071717,-0.023346,-0.08011
0.033112,-0.11246,-0.038605,-0.068208,0.044404,0.01297,-0.020294,-0.095979
-0.015106,-0.064851,-0.076143,-0.08835,0.037995,-0.00015259,-0.01297,-0.075532
-0.034638,-0.037995,-0.10147,-0.08835,0.027008,0.0068666,-0.002594,-0.043488
-0.060578,-0.014191,-0.11337,-0.093843,0.010834,-0.0056458,0.0065614,-0.00045777
-0.076143,0.0206,-0.098116,-0.096284,0.0065614,-0.013581,-0.0035096,0.031281
-0.11032,0.053864,-0.08835,-0.11398,-0.0083925,-0.0077821,0.011139,0.027619
-0.12558,0.10544,-0.11429,-0.11398,-0.025177,-0.010224,0.018158,0.056001
-0.11551,0.057832,-0.094453,-0.11887,-0.038605,0.009308,0.023041,0.094759
-0.1033,0.041657,-0.098116,-0.11063,-0.04654,0.029145,0.032197,0.074617
-0.081636,0.022736,-0.057832,-0.074922,-0.045624,0.044709,0.036774,0.059358
-0.061189,-0.0086976,-0.04593,-0.066987,-0.038911,0.036164,0.028229,0.061494
-0.026703,-0.058442,-0.016632,-0.050813,-0.012665,0.028229,0.025177,0.083772
0.011139,-0.096284,-0.0041199,-0.033722,0.0090028,0.026703,0.031586,0.085908
0.063935,-0.12192,0.002594,-0.040436,0.040436,0.01297,0.031281,0.076448
0.087739,-0.13382,0.0047303,-0.0383,0.058442,0.0080873,0.019684,0.011139
0.084382,-0.13138,-0.015412,-0.024262,0.051423,0.0090028,-0.0032044,-0.069429
0.086519,-0.14633,-0.011444,-0.040742,0.056306,0.010834,-0.026703,-0.093843
0.04715,-0.11856,-0.036469,-0.066377,0.053864,-0.0035096,-0.041047,-0.1091
0.0038148,-0.041962,-0.058442,-0.08835,0.057527,-0.015717,-0.049592,-0.10025
-0.040436,0.0080873,-0.095369,-0.089876,0.026703,0.009308,-0.038605,-0.093843
-0.075227,0.039521,-0.1088,-0.11276,-0.0068666,0.025483,0.013886,-0.10178
-0.10788,0.070649,-0.12284,-0.11551,-0.0056458,0.0047303,0.01297,-0.030365
-0.13016,0.065461,-0.11856,-0.12314,-0.023041,0.0019837,0.020905,0.043488
-0.12314,0.07187,-0.10758,-0.1091,-0.041962,0.0050355,0.012665,0.07248
-0.11521,0.043183,-0.0972,-0.10666,-0.049897,0.010834,0.036164,0.10086
-0.103,0.027619,-0.080415,-0.10056,-0.043183,0.0090028,0.033417,0.10849
-0.068818,-0.018463,-0.049287,-0.073701,-0.019684,0.019074,0.031586,0.1088
-0.03769,-0.041962,-0.02884,-0.070649,-0.013275,0.024567,0.057221,0.10758
-0.0022889,-0.077668,-0.0065614,-0.052949,-0.00015259,0.005951,0.026093,0.10391
0.041352,-0.13291,0.0016785,-0.032502,0.020905,0.0053407,0.019684,0.089876
0.063325,-0.12802,-0.0206,-0.035554,0.048371,0.013886,0.01297,0.053254
0.07187,-0.1384,0.0062562,-0.0383,0.06363,0.018158,-0.0019837,-0.016938
0.060273,-0.1326,-0.0056458,-0.036774,0.067903,-0.0028992,-0.0096132,-0.053254
0.045319,-0.11246,-0.023041,-0.035554,0.066072,0.00076295,-0.0096132,-0.069123
0.0032044,-0.045319,-0.064851,-0.062409,0.066682,0.0044251,-0.026703,-0.085908
-0.033722,-0.0096132,-0.077058,-0.082856,0.045014,0.0044251,-0.022126,-0.069429
-0.052644,0.011444,-0.10666,-0.078584,0.014191,-0.00076295,0.002594,-0.028534
-0.082856,0.036164,-0.11948,-0.10513,0.0041199,0.0041199,0.015717,0.0032044
-0.079194,0.032197,-0.092012,-0.11093,-0.023041,0.016632,0.03006,0.041657
-0.10025,0.043183,-0.11276,-0.11582,-0.04593,0.0099184,0.0080873,0.041047
-0.087129,0.050202,-0.10971,-0.10941,-0.028229,-0.0032044,0.00076295,0.049592
-0.063325,0.034333,-0.0972,-0.11673,-0.02945,-0.019684,0.011139,0.070039
-0.057221,0.018158,-0.073091,-0.092927,-0.034333,-0.034333,0.011749,0.059663
-0.041352,-0.014496,-0.048676,-0.08896,-0.035554,0.00076295,-0.0071717,0.023957
0.048066,-0.070344,-0.022736,-0.06302,-0.012665,0.024872,0.034028,0.014801
0.072175,-0.10208,-0.010529,-0.059358,0.012665,0.025483,0.034028,-0.022736
0.099641,-0.11948,0.0041199,-0.05417,0.012665,0.031281,0.023957,-0.063935
0.033722,-0.11612,-0.010224,-0.042878,0.02182,0.043488,0.024872,-0.074006
-0.024872,-0.11368,-0.016022,-0.030976,0.043183,0.039216,0.010834,-0.048676
-0.039826,-0.121,-0.0053407,-0.042573,0.057221,0.016632,-0.00015259,-0.0090028
-0.048676,-0.12894,-0.0041199,-0.050507,0.048981,0.0053407,-0.00076295,0.041962
-0.067903,-0.074922,-0.06302,-0.068208,0.056001,0.005951,0.011749,0.056306
-0.091707,-0.0016785,-0.084688,-0.079194,0.04593,0.0053407,0.019989,0.0096132
-0.084993,0.041352,-0.086213,-0.098726,0.010834,0.0044251,0.045319,-0.0032044
-0.087434,0.041962,-0.12284,-0.095064,0.0016785,-0.0028992,0.0065614,0.0096132
-0.087129,0.065461,-0.13138,-0.12192,-0.012055,-0.0099184,-0.062104,0.013581
-0.10025,0.089265,-0.121,-0.11643,-0.035859,0.0080873,0.0053407,-0.00076295
-0.094453,0.071565,-0.10239,-0.10941,-0.057221,0.02121,0.05539,0.035248
-0.069123,0.039216,-0.086519,-0.0972,-0.059358,-0.0077821,0.0010681,0.083772
-0.04654,-0.016938,-0.049897,-0.069429,-0.028229,-0.025483,-0.077668,0.084688
-0.010224,-0.064546,-0.035554,-0.066987,-0.014191,0.010529,0.0035096,0.069734
0.027008,-0.080415,-0.016327,-0.05539,-0.0028992,0.032502,0.13474,0.05417
0.048981,-0.10391,0.009308,-0.036774,0.015106,0.0083925,0.027008,0.036164
0.065156,-0.12741,-0.00015259,-0.043488,0.031586,0.018769,0.0028992,-0.0062562
0.068513,-0.13016,0.01236,-0.040436,0.051728,0.01297,-0.019074,-0.025177
0.059663,-0.12955,-0.013581,-0.039216,0.066072,0.010224,-0.021515,-0.029145
0.052338,-0.13046,-0.02182,-0.042573,0.069429,0.025483,-0.013581,-0.048981
0.0032044,-0.084382,-0.025483,-0.068513,0.05417,0.0083925,-0.0071717,-0.06302
-0.019379,-0.034638,-0.068818,-0.078584,0.048066,0.0044251,-0.0044251,-0.077668
-0.044404,0.0053407,-0.10422,-0.10544,0.02945,0.022126,0.022126,-0.04654
-0.072786,0.047761,-0.11551,-0.11337,0.0053407,0.022431,0.019379,-0.0086976
-0.085603,0.052338,-0.11917,-0.10483,-0.013581,0.014801,0.0053407,0.027008
-0.035554,0.062715,-0.1146,-0.11521,-0.040436,-0.010834,0.011749,0.039521
-0.066072,0.073091,-0.098421,-0.1088,-0.040742,-0.0035096,0.03006,0.060578
-0.10422,0.035554,-0.08957,-0.094453,-0.033417,0.005951,0.012055,0.083772
-0.099336,0.019379,-0.057221,-0.085298,-0.023041,0.00045777,-0.0041199,0.073701
-0.069734,-0.036469,-0.035859,-0.06363,-0.026398,0.0062562,0.019379,0.079194
-0.052949,-0.05417,-0.046235,-0.06363,-0.0019837,0.01297,0.033417,0.057527
-0.009308,-0.085603,-0.032197,-0.067597,0.0068666,0.020294,0.033722,-0.0090028
0.033417,-0.10056,-0.002594,-0.055695,-0.0050355,0.040131,0.029755,-0.04593
0.029755,-0.12955,0.0016785,-0.046845,0.016632,0.035554,0.0065614,-0.0795
0.037995,-0.13443,-0.00045777,-0.048371,0.050507,0.013275,-0.013581,-0.067597
0.04654,-0.12772,-0.01297,-0.043488,0.065156,-0.0053407,-0.044709,-0.078279
0.040436,-0.10971,-0.019684,-0.052949,0.056001,-0.0041199,-0.035554,-0.1323
0.0035096,-0.074922,-0.058442,-0.057527,0.048371,-0.010834,-0.01236,-0.04654
-0.010529,-0.047761,-0.066987,-0.082246,0.045319,-0.019379,-0.018769,0.077668
-0.025788,-0.016632,-0.096895,-0.095064,0.035248,-0.0056458,-0.009308,0.073701
-0.07187,0.044404,-0.11246,-0.10758,0.012665,-0.0062562,-0.0096132,0.017853
-0.074617,0.070344,-0.12345,-0.10269,-0.015412,0.0010681,-0.00045777,0.027619
-0.0972,0.086213,-0.12924,-0.1149,-0.023346,-0.0035096,-0.0022889,0.031281
-0.096284,0.070344,-0.10361,-0.11398,-0.039521,-0.015717,0.0071717,0.048066
-0.09781,0.048371,-0.099641,-0.1207,-0.040742,-0.0074769,0.023651,0.095674
-0.090181,0.0074769,-0.081941,-0.082246,-0.030976,0.0010681,0.045624,0.098421
-0.067597,-0.028534,-0.045624,-0.064851,-0.039521,0.0077821,0.026703,0.07126
-0.048371,-0.041352,-0.0080873,-0.059663,-0.020905,0.014801,0.026703,0.030365
-0.019379,-0.077363,0.009308,-0.056916,-0.0035096,0.032197,0.035859,0.02182
0.02182,-0.12406,0.042878,-0.035248,0.019379,0.035248,0.039826,0.090181
0.024872,-0.12894,0.0074769,-0.040436,0.057221,0.037995,0.034943,0.11307
0.051423,-0.12345,-0.027619,-0.042573,0.04715,0.038605,0.023957,-0.03769
0.066377,-0.12253,-0.034638,-0.04654,0.035248,0.037079,0.0068666,-0.13077
0.042878,-0.1207,-0.032502,-0.066682,0.059968,0.0053407,-0.022126,-0.15
-0.0056458,-0.056916,-0.056611,-0.074311,0.061799,0.0013733,-0.0071717,-0.14878
-0.023346,-0.018158,-0.092317,-0.078584,0.037385,0.014496,-0.0047303,-0.10422
-0.056916,0.025788,-0.1088,-0.10758,0.027008,-0.0056458,-0.00076295,-0.027619
-0.0972,0.077668,-0.12497,-0.12436,0.011139,-0.0050355,0.0068666,0.045624
-0.083162,0.066682,-0.1149,-0.11734,-0.024872,0.015106,0.011749,0.069734
-0.084382,0.060578,-0.10697,-0.11124,-0.057527,0.026398,0.03006,0.077363
-0.099031,0.049897,-0.10269,-0.11307,-0.043183,0.0041199,0.022736,0.074006
-0.10056,0.047761,-0.095979,-0.096895,-0.035554,-0.0077821,0.019379,0.067292
-0.067903,-0.0077821,-0.056611,-0.077058,-0.041047,0.0050355,0.024872,0.058137
-0.011444,-0.066377,-0.022126,-0.058137,-0.028534,0.019989,0.035859,0.076143
0.048066,-0.11032,-0.014496,-0.051728,-0.0010681,0.031586,0.052338,0.085298
0.067292,-0.12741,-0.0062562,-0.044099,0.024262,0.027008,0.051423,0.042878
0.099031,-0.1387,0.0065614,-0.041047,0.031586,0.02121,-0.015106,-0.012055
0.10849,-0.1326,-0.00015259,-0.034638,0.048066,0.017243,-0.069429,-0.059663
0.02121,-0.10422,-0.018463,-0.051118,0.059358,0.009308,-0.018463,-0.073091
-0.021515,-0.103,-0.025483,-0.054475,0.066072,0.00045777,-0.0383,-0.079805
-0.049897,-0.068818,-0.055695,-0.058747,0.0383,0.0010681,-0.014801,-0.065461
-0.059663,-0.014496,-0.070344,-0.084688,0.029755,0.0019837,-0.0071717,-0.042573
-0.095979,0.0035096,-0.093233,-0.10086,0.025177,-0.013275,-0.0062562,-0.050813
-0.095979,0.031281,-0.10636,-0.098421,0.0080873,-0.014191,0.016022,-0.036774
-0.087434,0.056306,-0.12039,-0.11765,-0.013275,-0.0016785,0.011444,0.023041
-0.081636,0.059358,-0.10758,-0.11917,-0.031586,0.005951,0.010529,0.053864
-0.065766,0.04715,-0.11521,-0.10971,-0.039521,0.0077821,0.019684,0.094148
-0.035248,0.027314,-0.093233,-0.098726,-0.039521,0.015412,0.034943,0.14511
-0.022736,-0.023957,-0.049287,-0.094453,-0.016632,0.011444,0.040436,0.13474
-0.015717,-0.064546,-0.047761,-0.075227,-0.019379,0.0019837,0.023041,0.074006
-0.023346,-0.0383,-0.041962,-0.064851,-0.0074769,-0.0080873,0.039521,0.049287
-0.010834,-0.058747,-0.018158,-0.040436,0.018769,-0.014191,-0.032807,0.013275
0.0086976,-0.10147,-0.0041199,-0.048676,0.016938,-0.0086976,-0.10544,-0.0044251
0.012665,-0.11246,0.005951,-0.045014,0.017853,0.026398,0.019074,-0.0013733
0.03006,-0.11154,-0.0062562,-0.039216,0.033417,0.030365,0.039216,-0.06363
0.026093,-0.095979,-0.034943,-0.05417,0.042878,0.0383,0.016022,-0.072175
0.018769,-0.090791,-0.021515,-0.061189,0.040131,0.04654,0.031891,-0.045624
-0.0090028,-0.074006,-0.040436,-0.065156,0.034028,0.0383,0.015717,-0.074922
-0.025483,-0.053864,-0.040436,-0.062409,0.028229,0.037079,0.034333,-0.075837
-0.055695,0.0019837,-0.097505,-0.077363,0.02121,0.0038148,0.0074769,-0.027008
-0.084993,0.052338,-0.10941,-0.098421,0.014801,-0.0099184,-0.0050355,0.026093
-0.093538,0.088045,-0.095064,-0.093843,0.0047303,-0.0099184,0.051423,0.073396
-0.082856,0.095369,-0.13931,-0.11154,-0.021515,0.00045777,0.057527,0.090791
-0.072175,0.035554,-0.11673,-0.11398,-0.028534,0.0077821,0.0077821,0.10697
-0.08011,0.026093,-0.10056,-0.11368,-0.030365,-0.0096132,-0.059968,0.081331
-0.078279,0.010224,-0.072786,-0.091402,-0.024567,-0.043793,-0.085298,0.052338
-0.050507,-0.044099,-0.033112,-0.075532,-0.026703,-0.013275,-0.059052,0.047456
-0.025483,-0.058137,-0.023041,-0.073701,-0.017243,0.020905,0.050507,0.02945
0.022126,-0.10483,-0.0035096,-0.044404,0.0074769,0.00045777,0.08011,0.034028
0.058442,-0.15152,0.00045777,-0.034333,0.039826,-0.014191,0.082551,0.019684
0.051728,-0.14817,0.0044251,-0.030365,0.04715,0.012665,0.070344,-0.010224
0.055695,-0.12619,-0.002594,-0.038605,0.040131,0.027314,0.028229,-0.033112
0.056306,-0.099947,-0.033722,-0.063325,0.049592,0.022431,-0.039521,-0.074006
0.097505,-0.10361,-0.044709,-0.058442,0.045014,0.014191,-0.061494,-0.097505
0.018769,-0.074006,-0.070954,-0.0795,0.04715,0.0090028,-0.037385,-0.10025
-0.024262,-0.025483,-0.10452,-0.097505,0.040131,0.0047303,-0.011444,-0.10513
-0.056611,0.019074,-0.096895,-0.096895,0.024872,0.0022889,-0.0056458,-0.08835
-0.087129,0.035859,-0.10086,-0.11124,-0.0071717,-0.0041199,0.02884,-0.04654
-0.10239,0.040131,-0.084382,-0.098726,-0.023651,-0.0053407,0.054475,0.00045777
-0.12131,0.065461,-0.10666,-0.10575,-0.019379,-0.024262,0.014801,0.042267
-0.11643,0.066682,-0.092012,-0.10636,-0.03769,-0.016022,-0.0074769,0.076448
-0.10147,0.04593,-0.09659,-0.099641,-0.052644,0.0065614,-0.013275,0.088655
-0.067597,-0.0077821,-0.059968,-0.083467,-0.035859,0.0071717,-0.01236,0.083467
-0.054475,-0.017548,-0.04593,-0.073396,-0.023651,0.022126,0.025177,0.075837
-0.050813,-0.031891,-0.025483,-0.062409,-0.0032044,0.016022,0.061189,0.061799
0.0080873,-0.12192,0.012055,-0.030976,0.011139,0.013886,0.022126,0.074006
0.012055,-0.14359,0.03006,-0.032502,0.039216,0.016632,0.027314,0.031281
0.018158,-0.12222,0.002594,-0.052949,0.059358,0.016632,0.039826,-0.015412
0.02945,-0.11185,-0.030671,-0.041657,0.061494,0.035554,0.026703,-0.03769
0.012665,-0.08011,-0.024262,-0.052949,0.061189,0.03006,0.017853,-0.025177
-0.0068666,-0.087434,-0.043793,-0.06302,0.042267,0.034638,0.02884,-0.041962
-0.016327,-0.052338,-0.077363,-0.081636,0.039521,0.030976,0.012055,-0.067903
-0.018158,0.010529,-0.094148,-0.092927,0.019379,0.013275,-0.019074,-0.0083925
-0.010834,0.022736,-0.11063,-0.092927,-0.00015259,0.0083925,-0.010834,-0.0086976
-0.025788,0.025177,-0.1326,-0.11093,-0.017548,-0.0086976,-0.013275,-0.0032044
-0.03769,0.033112,-0.11368,-0.10452,-0.02945,-0.030976,-0.016632,0.0099184
-0.065461,0.048371,-0.10941,-0.10697,-0.02884,-0.036469,-0.019074,0.057221
-0.087129,0.054475,-0.08957,-0.10941,-0.02884,-0.023041,-0.017243,0.1265
-0.066072,0.028534,-0.084382,-0.10086,-0.034943,-0.0047303,0.015717,0.11429
-0.047761,-0.018463,-0.058747,-0.081331,-0.038605,0.020905,0.048981,0.095369
-0.040436,-0.039521,-0.02884,-0.056611,-0.024567,0.023041,0.047761,0.043488
-0.041962,-0.069429,-0.0080873,-0.045319,0.0035096,0.0062562,0.019074,-0.018158
-0.016938,-0.10941,0.0086976,-0.054475,0.019684,0.015106,0.011139,-0.022126
0.0071717,-0.10971,-0.0083925,-0.046845,0.019379,0.036469,0.029755,-0.041962
0.033417,-0.13169,0.011444,-0.046845,0.032197,0.059052,0.056306,-0.041657
0.039216,-0.13016,-0.014801,-0.045624,0.051118,0.050813,0.03769,-0.01236
0.02945,-0.11643,-0.022736,-0.039521,0.059663,0.033417,0.010834,-0.030671
-0.0053407,-0.069429,-0.061799,-0.078889,0.040436,0.018158,0.0065614,-0.069734
-0.031891,-0.035554,-0.076448,-0.089265,0.040131,0.011139,-0.0047303,-0.048676
-0.057832,0.0080873,-0.10239,-0.10086,0.025483,0.010529,-0.012055,0.0035096
-0.08011,0.040742,-0.11521,-0.10758,-0.0071717,0.014801,-0.010224,0.041352
-0.085298,0.058442,-0.11368,-0.11032,-0.025788,0.014801,0.0099184,0.057221
-0.081636,0.06363,-0.12131,-0.11246,-0.033417,-0.0077821,-0.0032044,0.040436
-0.059663,0.041352,-0.10636,-0.099641,-0.020294,-0.028229,-0.014496,0.045319
-0.056611,0.025788,-0.092927,-0.10361,-0.020294,-0.025788,-0.011444,0.06363
-0.024567,-0.005951,-0.060883,-0.073396,-0.031281,-0.025788,-0.024567,0.065156
0.023957,-0.035554,-0.0383,-0.072175,-0.02121,-0.016327,-0.024262,0.033112
0.095674,-0.075837,-0.018769,-0.055085,-0.0053407,-0.0062562,-0.016327,0.0056458
0.044404,-0.12406,-0.0019837,-0.044404,0.011749,-0.0035096,-0.021515,-0.027008
0.021515,-0.1442,0.013581,-0.044099,0.036774,-0.0016785,-0.0013733,-0.050507
0.0028992,-0.11978,-0.0062562,-0.048676,0.060578,-0.0047303,0.020294,-0.045319
-0.002594,-0.08896,-0.0016785,-0.053559,0.067903,0.0062562,0.039826,-0.032807
-0.027314,-0.086824,-0.026398,-0.05417,0.061494,0.034638,0.056306,-0.014191
-0.032502,-0.070039,-0.041657,-0.056916,0.045319,0.040742,0.041657,-0.030365
-0.041962,-0.027924,-0.073396,-0.078889,0.02945,0.037079,0.034333,-0.038605
-0.059052,-0.0022889,-0.094148,-0.09781,0.0090028,0.043488,0.049287,0.032807
-0.10697,0.0383,-0.11704,-0.10483,-0.0019837,0.037995,0.04654,0.051423
-0.14572,0.052033,-0.10361,-0.10544,-0.016327,0.04654,0.040436,0.062409
-0.14054,0.025788,-0.075227,-0.10788,-0.039826,0.034638,0.035859,0.062104
-0.12833,0.039826,-0.093538,-0.096895,-0.038911,0.005951,0.00076295,0.062409
-0.11154,0.014191,-0.091402,-0.098421,-0.026703,-0.0068666,0.0053407,0.073701
-0.093538,0.028534,-0.10758,-0.099336,-0.031281,-0.005951,0.0080873,0.090486
-0.045014,0.0013733,-0.062715,-0.085298,-0.020905,-0.016327,-0.017243,0.086213
-0.02121,-0.02945,-0.04593,-0.069429,-0.011444,-0.0099184,-0.018769,0.049592
0.031586,-0.074617,-0.023957,-0.063325,0.0071717,-0.0050355,-0.0028992,0.013581
0.082551,-0.1146,0.0041199,-0.05539,0.018769,-0.0056458,0.019684,-0.010224
0.097505,-0.14206,-0.0038148,-0.044404,0.033722,-0.0047303,0.016022,-0.049287
0.086519,-0.12436,-0.0083925,-0.040436,0.049287,0.0077821,0.0038148,-0.092927
0.062409,-0.11337,-0.032197,-0.03769,0.060578,-0.00076295,-0.0090028,-0.099336
0.042878,-0.11093,-0.013886,-0.030976,0.064546,0.0065614,0.00076295,-0.11215
0.011749,-0.09659,-0.039216,-0.047761,0.059663,0.014496,0.010529,-0.073701
0.0038148,-0.030976,-0.069429,-0.068208,0.048371,0.011139,-0.010529,-0.043793
-0.026703,0.039216,-0.078584,-0.087434,0.033112,0.01236,-0.02121,-0.0206
-0.065461,0.019684,-0.11948,-0.10666,0.015106,0.010834,-0.014191,-0.0041199
-0.092927,0.033722,-0.11978,-0.12497,-0.0080873,0.0099184,-0.015106,0.033112
-0.095979,0.019074,-0.081331,-0.10636,-0.029145,0.0028992,-0.010834,0.065766
-0.081636,0.058137,-0.10452,-0.10941,-0.03769,-0.0013733,0.0090028,0.087434
-0.083467,0.05539,-0.11337,-0.08835,-0.04715,-0.0032044,0.0090028,0.065461
-0.075837,0.034028,-0.079194,-0.086519,-0.040436,-0.019684,0.012055,0.070649
-0.05539,-0.010224,-0.05478,-0.077363,-0.024262,-0.014191,0.017548,0.065766
-0.035554,-0.028534,-0.036774,-0.073091,-0.024262,0.0044251,0.037079,0.056611
-0.015106,-0.044709,-0.0065614,-0.06363,-0.015412,0.017853,0.036164,0.032807
0.013886,-0.092317,0.002594,-0.048676,0.009308,0.016022,0.044099,0.054475
0.025788,-0.12161,0.0013733,-0.037385,0.025788,0.02121,0.034943,0.075227
0.019074,-0.13199,0.002594,-0.044099,0.050507,0.02884,0.033722,-0.049287
0.012665,-0.12619,-0.014801,-0.060883,0.062409,0.03006,0.033722,-0.10544
0.02121,-0.16434,-0.016632,-0.038605,0.057832,0.027314,0.0077821,-0.08896
0.019379,-0.17777,-0.076753,-0.068818,0.052338,0.0065614,-0.00076295,-0.1033
-0.013581,-0.036469,-0.077363,-0.08835,0.050507,0.0019837,0.0056458,-0.10208
-0.057832,-0.0044251,-0.094148,-0.10544,0.029755,0.0050355,-0.015412,-0.062715
-0.065461,0.046235,-0.12528,-0.10849,-0.0013733,0.0019837,0.012055,0.0065614
-0.086213,0.081941,-0.12314,-0.09781,-0.02121,-0.0016785,-0.00045777,0.034943
-0.075837,0.070039,-0.11826,-0.11887,-0.033417,-0.011139,0.0065614,0.070039
-0.065766,0.053559,-0.095064,-0.1033,-0.03769,-0.017853,0.0077821,0.1207
-0.062715,0.038605,-0.095979,-0.081331,-0.039216,-0.021515,0.0032044,0.12528
-0.056916,0.016327,-0.075227,-0.087129,-0.026703,-0.009308,0.0096132,0.095369
0.045624,-0.046845,-0.05478,-0.076448,-0.01297,0.0028992,0.017243,0.06424
0.053559,-0.052644,-0.013886,-0.051118,-0.011139,0.013275,0.027008,0.027008
0.00045777,-0.052033,-0.0013733,-0.058442,0.014801,0.0068666,-0.022736,-0.010834
0.0016785,-0.096895,0.009308,-0.032807,0.031281,0.0050355,-0.014801,-0.0383
-0.018463,-0.12467,0.0086976,-0.027619,0.041047,0.030671,0.019989,-0.091096
-0.060578,-0.11978,0.009308,-0.05478,0.051118,0.027314,0.025483,-0.070649
-0.049592,-0.10666,-0.0090028,-0.066987,0.062409,0.039216,0.049897,-0.016327
-0.0044251,-0.10422,-0.030365,-0.074922,0.055695,0.047456,0.11185,0.005951
-0.02945,-0.047456,-0.056306,-0.069734,0.037385,0.048676,0.067903,-0.014496
-0.057221,-0.011444,-0.056001,-0.075532,0.039826,0.023346,-0.062715,-0.022431
-0.061799,0.00015259,-0.1033,-0.075532,0.019074,-0.00076295,-0.12406,0.019684
-0.088045,0.070039,-0.16526,-0.11337,0.0019837,0.0022889,0.0010681,0.037079
-0.11002,0.093843,-0.11521,-0.12253,-0.012055,0.0013733,0.050507,0.057832
-0.12192,0.070344,-0.11276,-0.11673,-0.048676,0.010529,0.067597,0.09781
-0.091096,0.040742,-0.095979,-0.10788,-0.059663,0.030365,0.089265,0.13199
-0.061189,0.017853,-0.078584,-0.099336,-0.045624,0.014191,0.067292,0.084688
0.0090028,-0.014496,-0.055695,-0.083467,-0.028229,-0.02945,-0.027008,0.038911
0.0010681,-0.046235,-0.045624,-0.075227,-0.0062562,-0.024262,-0.086824,0.05539
0.0038148,-0.078889,-0.018158,-0.056306,0.002594,0.014496,0.025483,0.035248
0.031281,-0.10422,-0.010224,-0.041047,0.016632,-0.0041199,0.027924,0.028229
0.04715,-0.13413,-0.0044251,-0.047456,0.023651,0.00015259,0.015717,0.0019837
0.038911,-0.14176,0.0013733,-0.043183,0.051423,0.02121,0.018158,-0.084382
0.053559,-0.12985,-0.023957,-0.040742,0.059052,0.043183,0.022126,-0.11551
0.077974,-0.14145,0.0065614,-0.041657,0.047761,0.038911,-0.0068666,-0.14084
0.0383,-0.098116,-0.031586,-0.051118,0.049592,0.0041199,-0.039521,-0.15854
-0.0019837,-0.047761,-0.077363,-0.079194,0.045319,-0.0022889,-0.032807,-0.10575
-0.037079,-0.014496,-0.093538,-0.08835,0.03006,-0.0010681,0.00076295,-0.042878
-0.05478,0.023346,-0.11124,-0.103,0.019074,-0.010224,0.020905,-0.0096132
-0.08072,0.04715,-0.11978,-0.10239,-0.018158,-0.0035096,0.0041199,0.027008
-0.076753,0.059968,-0.12741,-0.09659,-0.034638,-0.0077821,-0.0035096,0.04593
-0.077974,0.062409,-0.1091,-0.11398,-0.032807,-0.013581,-0.009308,0.075532
-0.11154,0.053559,-0.093538,-0.12039,-0.041962,-0.018158,-0.016938,0.093843
-0.11704,0.04593,-0.076753,-0.10361,-0.039216,0.0047303,0.033417,0.16526
-0.0795,0.009308,-0.051118,-0.080415,-0.041352,0.028534,0.089876,0.25223
-0.062104,-0.033722,-0.033722,-0.069734,-0.027008,0.044099,0.08835,0.22202
-0.043183,-0.072175,-0.017853,-0.044099,-0.0080873,0.045624,0.077668,0.091707
-0.012665,-0.097505,0.0038148,-0.041657,0.013886,0.035248,0.03769,-0.020294
0.015717,-0.07248,-0.00045777,-0.04654,0.046845,0.010529,0.0013733,-0.044709
-0.015106,-0.10025,-0.0062562,-0.052644,0.062409,-0.0013733,-0.022736,-0.041047
-0.0056458,-0.14054,-0.030365,-0.061799,0.052949,0.0065614,-0.017548,-0.020905
0.036164,-0.1442,-0.034638,-0.052949,0.046235,0.030976,0.0019837,-0.048371
0.039826,-0.074311,-0.064851,-0.06424,0.041047,0.02884,0.016632,-0.103
0.027314,-0.040436,-0.035554,-0.066682,0.034333,0.0086976,0.0035096,-0.11704
0.015717,-0.055695,-0.08896,-0.094453,0.023957,0.0010681,0.0077821,-0.096284
-0.0068666,-0.025788,-0.065156,-0.082856,0.020905,-0.005951,-0.0047303,-0.053559
-0.018463,0.018158,-0.070344,-0.055695,0.0071717,-0.029145,-0.049897,-0.017548
-0.059968,0.07126,-0.13474,-0.10239,0.0019837,-0.02182,-0.049287,0.0041199
-0.093843,0.085298,-0.14572,-0.13138,-0.016327,-0.0056458,0.012055,0.034028
-0.086824,0.051728,-0.13748,-0.11185,-0.04593,0.0071717,0.019379,0.083772
-0.073701,-0.0077821,-0.04654,-0.08957,-0.043488,0.010834,0.019684,0.11795
-0.044709,-0.0083925,-0.04654,-0.085908,-0.020294,0.0022889,0.035554,0.099031
-0.022431,-0.042573,-0.024262,-0.058137,0.0038148,0.010224,0.032807,0.073701
-0.0022889,-0.092927,-0.0028992,-0.046235,0.010834,0.027924,0.026703,0.035554
0.020905,-0.11185,0.0056458,-0.046235,0.027314,0.020294,0.0056458,-0.00015259
0.030365,-0.13016,0.0053407,-0.052949,0.035554,0.016022,0.02121,-0.013581
0.033722,-0.13016,-0.0056458,-0.053559,0.047761,0.022126,0.019989,-0.043488
0.019684,-0.10025,-0.019684,-0.038605,0.053864,0.032197,-0.002594,-0.07126
0.0056458,-0.072786,-0.040131,-0.057221,0.058137,0.026093,-0.010834,-0.070039
-0.022736,-0.010224,-0.058442,-0.076753,0.052949,0.0041199,-0.010834,-0.054475
-0.05539,-0.01236,-0.082551,-0.096284,0.032807,-0.0013733,-0.010529,-0.031586
-0.066072,0.013275,-0.10697,-0.11337,0.0013733,0.011444,0.018158,-0.00015259
-0.081331,0.035248,-0.11887,-0.10239,-0.030671,0.020905,0.022126,0.0038148
-0.059358,0.051728,-0.11276,-0.11246,-0.02884,0.0071717,0.0013733,-0.018158
-0.066987,0.055695,-0.11032,-0.1207,-0.021515,0.00045777,0.0032044,0.0074769
-0.091096,0.044709,-0.10849,-0.09659,-0.038605,0.00015259,0.005951,0.082551
-0.10513,0.037079,-0.088045,-0.089876,-0.038911,-0.0071717,-0.0022889,0.074311
-0.075532,-0.022431,-0.058137,-0.079805,-0.039521,-0.016327,0.018769,0.056306
-0.029145,-0.052338,-0.045624,-0.079194,-0.030365,0.0086976,0.063325,0.066377
0.019379,-0.073701,-0.016938,-0.044404,0.0047303,0.02121,0.070344,0.073396
0.010834,-0.067597,-0.014191,-0.03769,0.032807,0.010224,0.03006,0.030976
0.018769,-0.056916,-0.00015259,-0.047456,0.039521,0.015412,0.0077821,-0.0022889
0.0071717,-0.11215,0.009308,-0.03769,0.049592,0.031586,0.010529,-0.009308
0.0016785,-0.13291,0.013886,-0.028534,0.056916,0.018769,0.013275,-0.012665
0.009308,-0.13382,-0.018158,-0.04715,0.058442,0.019989,0.02884,0.009308
0.012055,-0.10025,-0.056611,-0.070649,0.06302,0.024872,0.015717,0.0032044
0.023041,-0.12345,-0.055695,-0.068818,0.042267,0.023041,0.0068666,-0.023346
-0.010529,-0.077668,-0.10361,-0.10239,0.034333,0.0022889,-0.0086976,-0.05539
-0.038911,0.044709,-0.11337,-0.10391,0.015412,-0.00076295,-0.025177,-0.052644
-0.061494,0.050202,-0.12039,-0.11093,-0.0068666,-0.0010681,0.0035096,-0.00076295
-0.075837,0.074617,-0.11551,-0.10758,-0.024567,-0.0041199,0.010529,0.037079
-0.073396,0.079805,-0.11948,-0.11643,-0.035248,-0.0050355,-0.00045777,0.045319
-0.088045,0.059968,-0.096895,-0.098421,-0.022126,0.0068666,0.00076295,0.041047
-0.023346,0.018463,-0.069123,-0.084382,-0.023041,0.002594,-0.0019837,0.029755
0.0016785,-0.022126,-0.034943,-0.074922,-0.025177,-0.0099184,0.013581,0.026093
-0.030365,-0.04654,-0.026093,-0.075227,-0.011139,-0.0013733,0.026703,0.019989
-0.039216,-0.069734,-0.011749,-0.05478,-0.0068666,0.016022,0.025483,0.024262
-0.016632,-0.10056,0.0047303,-0.041047,0.0080873,0.025483,0.031586,0.019074
0.0032044,-0.11765,0.00045777,-0.038605,0.040131,0.021515,0.024262,0.025483
0.0041199,-0.121,0.00015259,-0.040436,0.047456,0.014191,0.023957,-0.013275
0.013581,-0.11063,-0.014191,-0.047456,0.053254,0.020294,0.02121,-0.031891
0.015412,-0.11612,-0.0077821,-0.044709,0.04715,0.040131,0.026703,-0.024567
-0.0053407,-0.087434,-0.058137,-0.05478,0.042878,0.0077821,0.0016785,-0.049287
-0.049897,-0.026703,-0.072786,-0.08835,0.037995,-0.0047303,-0.0096132,-0.034943
-0.08072,0.024262,-0.10086,-0.095369,0.020905,0.0068666,-0.013581,-0.015717
-0.095064,0.056306,-0.12375,-0.10727,0.0065614,0.027314,-0.0074769,0.016632
-0.10117,0.056001,-0.13779,-0.11704,-0.012055,0.027008,-0.00045777,0.078584
-0.084077,0.063935,-0.12863,-0.11551,-0.035554,0.017243,0.019379,0.10788
-0.07126,0.051118,-0.099031,-0.09781,-0.034333,0.0010681,0.0099184,0.11398
-0.04654,0.012055,-0.077058,-0.083467,-0.031281,-0.00076295,0.016632,0.10788
-0.041352,-0.0044251,-0.050507,-0.094453,-0.017243,0.0022889,0.014191,0.080415
-0.01297,-0.041352,-0.041962,-0.072175,-0.027619,-0.0022889,0.020905,0.076753
-0.0071717,-0.076448,-0.023041,-0.054475,-0.0090028,-0.0035096,0.024262,0.045624
0.040131,-0.11429,-0.00015259,-0.034333,0.010834,0.016022,0.029755,0.0038148
0.056611,-0.15274,0.017243,-0.032197,0.031586,0.031586,0.027008,-0.018158
0.034028,-0.12955,-0.012055,-0.036469,0.059052,0.018769,0.0032044,-0.052644
0.035248,-0.071565,-0.016327,-0.053254,0.06302,0.018463,-0.0065614,-0.08011
0.032807,-0.061799,-0.023957,-0.064851,0.049897,0.02945,0.0068666,-0.086824
0.043793,-0.10452,-0.032807,-0.051728,0.032807,0.029145,0.013886,-0.08072
0.043488,-0.084688,-0.041962,-0.078889,0.037995,0.020294,-0.002594,-0.082246
0.0038148,-0.042267,-0.066682,-0.090791,0.029755,-0.013886,-0.034638,-0.07126
-0.055695,0.011139,-0.11215,-0.093538,0.030976,-0.045624,-0.031281,-0.037079
-0.074006,0.04715,-0.13321,-0.11734,0.01297,-0.03769,0.0016785,0.017853
-0.092012,0.062409,-0.12284,-0.12161,-0.024262,-0.0047303,0.043793,0.048066
-0.1326,0.077668,-0.11826,-0.11673,-0.035248,0.018769,0.041352,0.072786
-0.14328,0.070649,-0.10849,-0.12741,-0.037079,0.042573,0.050507,0.09781
-0.12772,0.055085,-0.094453,-0.11551,-0.058442,0.047456,0.063935,0.063325
-0.11063,0.0022889,-0.04593,-0.092622,-0.059968,0.019379,0.035248,0.0053407
-0.05539,-0.029755,-0.036164,-0.063325,-0.036774,0.011139,0.041962,0.020905
0.025177,-0.073701,-0.0022889,-0.043488,-0.0022889,0.014191,0.029145,0.083772
0.03006,-0.11093,0.0038148,-0.029145,0.0099184,0.040131,0.0383,0.081636
0.047761,-0.12955,-0.00045777,-0.027619,0.043793,0.019379,0.027008,0.041047
0.049897,-0.14664,0.0086976,-0.020294,0.075227,-0.0050355,-0.0053407,0.0096132
0.023957,-0.1268,-0.023651,-0.038911,0.063325,-0.015412,-0.044709,-0.020905
0.025177,-0.099641,-0.026703,-0.041657,0.059968,-0.012665,-0.055695,-0.037385
0.013581,-0.078584,-0.066377,-0.063325,0.04715,-0.0016785,-0.052949,-0.058747
-0.0013733,-0.058747,-0.083467,-0.077363,0.040436,0.022431,-0.0013733,-0.079805
-0.010224,-0.0068666,-0.086519,-0.081331,0.02121,0.020905,0.0071717,-0.057832
-0.038605,0.025177,-0.10239,-0.10636,0.002594,-0.019379,-0.05478,-0.069734
-0.057527,0.045624,-0.10208,-0.10239,-0.0083925,-0.025483,-0.033112,-0.022431
-0.02884,0.059358,-0.10697,-0.11368,-0.022126,-0.0028992,-0.015106,0.041047
-0.10208,0.061189,-0.081941,-0.096895,-0.041657,0.010529,0.0090028,0.10452
-0.11643,0.048066,-0.099336,-0.1149,-0.033722,-0.0056458,0.037385,0.15854
-0.13046,0.040436,-0.08011,-0.099031,-0.022126,-0.016327,0.10605,0.11856
-0.13535,0.0019837,-0.053864,-0.087129,-0.030365,0.016938,0.12406,0.067597
-0.087739,-0.057527,-0.027619,-0.0795,-0.02121,0.051118,0.11368,0.034943
-0.0090028,-0.072175,-0.049287,-0.054475,-0.015412,0.044404,0.091402,-0.011139
0.039826,-0.11795,0.013275,-0.056306,0.017853,0.011444,-0.041352,-0.044404
0.043183,-0.1265,0.014801,-0.033112,0.050202,0.0086976,-0.089265,-0.052033
0.060273,-0.15061,-0.014496,-0.034943,0.056306,0.0041199,0.018769,-0.012665
0.069734,-0.13291,-0.0080873,-0.057527,0.067292,0.0068666,-0.055695,0.0028992
0.055085,-0.1146,-0.017548,-0.061799,0.058442,0.042573,-0.014496,-0.041352
0.028229,-0.074311,-0.052949,-0.068818,0.057527,0.028534,0.052033,-0.065461
-0.0071717,-0.044709,-0.078584,-0.070954,0.045624,0.0090028,-0.055085,-0.064546
-0.051118,0.010529,-0.10483,-0.092927,0.023651,0.01297,0.0086976,-0.040742
-0.083772,0.051728,-0.12497,-0.10483,0.0090028,-0.0077821,0.024262,0.026093
-0.087434,0.052338,-0.11551,-0.11032,-0.017243,-0.013275,-0.0013733,0.046235
-0.10147,0.063325,-0.11704,-0.11398,-0.043488,-0.017548,0.002594,0.056611
-0.10361,0.045319,-0.088655,-0.08835,-0.040742,-0.015412,-0.01236,0.085908
-0.092317,0.027924,-0.074006,-0.094453,-0.030671,0.0071717,-0.0068666,0.103
-0.039216,-0.0074769,-0.05417,-0.099336,-0.030976,0.022431,0.038911,0.090791
0.009308,-0.035859,-0.043183,-0.062409,-0.024567,0.018769,0.062409,0.070039
0.06302,-0.056306,-0.002594,-0.050507,-0.0056458,0.005951,0.029755,0.041047
0.070344,-0.099641,-0.010224,-0.050507,0.019074,0.0047303,-0.018463,0.010834
0.066377,-0.12863,-0.015717,-0.047456,0.037995,0.0071717,-0.0096132,0.029755
0.073701,-0.12863,-0.030976,-0.037385,0.048371,0.020294,-0.016632,-0.040436
0.059052,-0.11246,-0.01236,-0.043488,0.055695,0.02945,-0.018769,-0.12345
0.019074,-0.11185,0.015717,-0.036469,0.057832,0.024872,-0.011444,-0.17441
-0.018158,-0.11093,-0.040436,-0.041047,0.061189,0.022126,-0.009308,-0.17716
-0.053254,-0.034638,-0.066987,-0.092927,0.066072,0.022736,-0.0028992,-0.13199
-0.086824,-0.010834,-0.076753,-0.10056,0.034333,0.016632,0.0056458,-0.082856
-0.092012,0.02182,-0.099336,-0.096284,0.016938,-0.0019837,-0.00045777,0.010834
-0.15488,0.07248,-0.1268,-0.1033,0.0032044,-0.0019837,0.011749,0.044404
-0.16007,0.095369,-0.12894,-0.13107,-0.036469,0.0010681,0.075227,0.053559
-0.16312,0.075227,-0.12039,-0.13138,-0.064546,0.013275,0.069123,0.12894
-0.11856,0.040131,-0.077058,-0.1091,-0.067292,0.03006,0.059052,0.17685
-0.073396,0.023651,-0.062104,-0.080415,-0.051728,0.018463,0.059663,0.16281
-0.03769,-0.02884,-0.065766,-0.067597,-0.034638,0.0013733,0.02121,0.14878
-0.0206,-0.04654,-0.04715,-0.07126,-0.0068666,-0.0041199,0.0086976,0.14603
0.012665,-0.08835,0.00076295,-0.05539,0.005951,0.0041199,-0.0010681,0.090791
0.030976,-0.11887,0.009308,-0.041657,0.015106,0.024872,0.002594,0.053254
0.047456,-0.10025,-0.0068666,-0.045319,0.027924,0.015106,0.0090028,-0.0028992
0.045624,-0.11276,-0.0019837,-0.059663,0.047761,0.018463,0.0041199,-0.030976
0.041047,-0.10056,-0.018158,-0.063325,0.050202,0.018769,0.0050355,-0.056916
0.027619,-0.095369,-0.026398,-0.054475,0.055695,0.0086976,-0.0028992,-0.074617
0.02182,-0.070344,-0.056611,-0.059052,0.053864,0.010834,0.0047303,-0.077058
0.021515,-0.043488,-0.067903,-0.067597,0.030365,0.016327,0.0096132,-0.081941
0.025483,-0.032807,-0.08072,-0.082551,0.02121,0.013886,-0.00076295,-0.073091
-0.022126,0.027314,-0.10117,-0.10117,0.00076295,0.016327,0.0013733,-0.052949
-0.074922,0.040131,-0.10483,-0.10391,-0.014801,0.00015259,-0.0050355,-0.033417
-0.10758,0.041962,-0.099031,-0.1088,-0.022126,-0.013886,0.0065614,0.019379
-0.11063,0.04654,-0.1088,-0.10178,-0.0383,-0.0086976,0.0010681,0.032807
-0.10971,0.035554,-0.1265,-0.091402,-0.0383,-0.014801,-0.0090028,0.059052
-0.093843,0.048066,-0.092012,-0.093538,-0.030671,-0.0090028,0.0032044,0.11826
-0.046845,-0.017548,-0.039826,-0.077363,-0.019684,-0.0047303,0.015717,0.12436
-0.0074769,-0.045624,-0.035859,-0.062715,0.0032044,-0.0028992,0.0050355,0.070344
0.026703,-0.082246,-0.010834,-0.050813,0.015106,0.015106,-0.0056458,0.015106
0.031281,-0.10452,0.01236,-0.040436,0.0206,0.025483,0.014801,-0.014496
0.060578,-0.13077,0.0071717,-0.036164,0.039521,0.031586,0.0096132,-0.025483
0.050507,-0.14786,0.00015259,-0.024872,0.061189,0.016022,-0.0083925,-0.052949
0.019074,-0.11032,-0.022126,-0.059358,0.065766,-0.005951,-0.010529,-0.053559
0.0068666,-0.086519,-0.022431,-0.051728,0.060578,-0.0047303,0.00076295,-0.049287
-0.019074,-0.056916,-0.058137,-0.06302,0.050507,0.0010681,0.01297,-0.053254
-0.039826,-0.013581,-0.077974,-0.084688,0.037385,0.024872,0.044404,-0.029145
-0.098421,0.0206,-0.096284,-0.10727,0.017548,0.019379,0.04715,0.0056458
-0.11307,0.048676,-0.11337,-0.11643,-0.014496,0.029145,0.062104,0.019379
-0.11429,0.057527,-0.12467,-0.10178,-0.023651,0.053254,0.063935,0.10178
-0.11368,0.056001,-0.1207,-0.11704,-0.029145,0.024567,0.03006,0.096895
-0.11826,0.054475,-0.092622,-0.10483,-0.034638,0.012665,0.019379,0.085298
-0.099031,0.038605,-0.082856,-0.098726,-0.056916,0.017243,0.02945,0.10758
-0.04654,0.0074769,-0.08072,-0.090486,-0.057527,0.014191,0.014191,0.048371
0.00076295,-0.032197,-0.040131,-0.075227,-0.032502,0.002594,0.0016785,0.0019837
0.025177,-0.075837,-0.016938,-0.05417,-0.0041199,0.0028992,-0.02121,-0.011444
0.049897,-0.11582,0.0047303,-0.053254,0.019989,-0.0077821,-0.045624,-0.022126
0.085298,-0.14847,0.0065614,-0.044099,0.037079,-0.016022,-0.070954,-0.0083925
0.068208,-0.13443,0.011444,-0.032502,0.050507,-0.019074,-0.060883,-0.022431
0.047761,-0.1326,0.00015259,-0.042267,0.068208,-0.0041199,0.016938,-0.065766
0.039216,-0.12192,-0.010529,-0.040742,0.07248,-0.0047303,0.073701,-0.077363
0.034333,-0.10758,-0.048066,-0.045014,0.061494,-0.0013733,0.0065614,-0.041047
-0.0047303,-0.045624,-0.064546,-0.083772,0.045014,0.018769,0.023957,-0.02945
-0.048981,-0.0044251,-0.086824,-0.090791,0.033112,0.0053407,0.011139,-0.031891
-0.058137,0.02945,-0.10117,-0.08957,0.012055,0.010834,0.00076295,-0.0062562
-0.096895,0.066072,-0.12345,-0.11185,-0.0096132,0.022736,0.048371,0.017853
-0.10239,0.090486,-0.12284,-0.12711,-0.0096132,0.031586,0.027924,0.037079
-0.10056,0.074006,-0.10422,-0.11551,-0.029755,0.022431,0.01297,0.051728
-0.066987,0.014191,-0.0972,-0.099336,-0.035859,-0.019074,-0.030976,0.059358
-0.081941,0.015106,-0.092927,-0.11124,-0.023651,-0.02121,-0.072786,0.06424
-0.037385,-0.039521,-0.037995,-0.087129,-0.030365,0.027314,0.033112,0.059052
0.02945,-0.087739,-0.032502,-0.066987,-0.025788,0.013275,0.053864,0.052033
0.061494,-0.082856,-0.017853,-0.051423,0.013581,0.0013733,-0.0071717,0.025177
0.037385,-0.12039,0.016327,-0.028534,0.016632,-0.020905,-0.042573,0.061189
0.019989,-0.12192,0.0032044,-0.025483,0.031891,-0.02884,-0.098421,0.025788
-0.0074769,-0.11948,-0.00015259,-0.040436,0.07248,0.010834,-0.0090028,-0.016938
-0.035859,-0.098421,-0.019684,-0.053254,0.074311,0.022431,0.075227,-0.056001
-0.037079,-0.065461,-0.035859,-0.065156,0.050507,0.030671,0.054475,-0.081331
-0.041047,-0.030365,-0.052033,-0.07126,0.034943,0.027314,0.034943,-0.036774
-0.051423,0.016022,-0.058747,-0.061494,0.033417,0.03006,0.020294,0.005951
-0.053559,0.015717,-0.099641,-0.068208,0.0068666,0.042267,0.023041,0.002594
-0.082856,0.02182,-0.1207,-0.10452,0.0053407,0.029145,0.026093,0.024262
-0.081331,0.026093,-0.092927,-0.11154,-0.012665,0.016327,0.022736,0.074006
-0.055695,0.050507,-0.1149,-0.11307,-0.035248,0.0038148,0.022736,0.08957
-0.064851,0.056306,-0.1146,-0.12039,-0.045319,0.0032044,0.014191,0.082551
-0.059052,0.044099,-0.11429,-0.11582,-0.048371,0.0028992,0.016632,0.077974
-0.065461,0.056306,-0.095064,-0.1146,-0.039521,0.0090028,0.017243,0.089876
-0.053254,0.011749,-0.052338,-0.087739,-0.037079,0.0013733,0.027924,0.081331
-0.0083925,-0.036164,-0.025788,-0.057527,-0.017243,0.0099184,0.035554,0.026093
0.022126,-0.10788,0.017853,-0.048676,0.0035096,0.028229,0.022126,-0.048981
0.036164,-0.15488,0.0080873,-0.025483,0.016632,0.023957,0.0086976,-0.074617
0.07187,-0.18936,0.0206,-0.033417,0.043183,0.009308,-0.022431,-0.093538
0.12802,-0.26352,0.0038148,-0.033417,0.064546,-0.0013733,-0.025177,-0.11063
0.059358,-0.1207,-0.030365,-0.060273,0.056916,-0.0028992,-0.028534,-0.1387
0.023957,-0.077668,-0.028229,-0.051118,0.045624,0.012055,-0.031891,-0.13535
-0.016632,-0.056611,-0.066987,-0.068818,0.057221,-0.00015259,-0.039216,-0.081636
-0.034638,-0.014191,-0.078279,-0.073701,0.049592,0.014496,-0.0032044,-0.046845
-0.029755,-0.00076295,-0.11093,-0.08835,0.017548,0.018158,0.0080873,-0.049592
-0.047761,0.044709,-0.12131,-0.093538,0.0068666,-0.017548,-0.033417,-0.066682
0.0074769,0.07248,-0.13718,-0.11063,-0.014496,-0.022126,-0.032807,-0.029145
-0.043183,0.073091,-0.12161,-0.11185,-0.034638,-0.013275,-0.00045777,0.036774
-0.084382,0.052644,-0.090791,-0.096284,-0.038605,-0.0068666,0.0019837,0.092927
-0.14054,0.033722,-0.055695,-0.078584,-0.027008,-0.013581,0.0019837,0.11887
-0.13169,0.023957,-0.061799,-0.086824,-0.01236,-0.011749,0.034943,0.15
-0.15305,-0.0044251,-0.045624,-0.087434,-0.02121,-0.0080873,0.061494,0.18448
-0.11429,-0.035554,-0.026703,-0.072175,-0.011444,0.011139,0.052949,0.21103
-0.086213,-0.056306,0.0013733,-0.06424,0.011749,0.02884,0.052033,0.19883
-0.049592,-0.090791,0.0035096,-0.05539,0.039216,0.037995,0.059663,0.12711
-0.041962,-0.10483,-0.0041199,-0.040131,0.061799,0.041352,0.074311,0.083772
-0.033722,-0.10544,-0.0090028,-0.05478,0.057527,0.016327,0.032197,0.011139
0.016938,-0.10147,-0.016022,-0.046845,0.035554,0.050202,0.0050355,-0.019074
0.032197,-0.082246,-0.042878,-0.067597,0.016632,0.080415,0.053559,-0.039521
0.0053407,-0.048371,-0.077974,-0.086519,0.031281,0.06363,0.0383,-0.069123
0.012055,-0.028229,-0.092927,-0.081025,0.014801,0.042878,-0.012665,-0.056916
0.0077821,-0.0053407,-0.10239,-0.089876,-0.016327,0.016938,-0.0010681,-0.049287
-0.010529,0.021515,-0.13382,-0.10758,-0.016938,0.002594,0.0028992,-0.041352
-0.022431,0.036469,-0.11704,-0.10269,-0.018769,-0.020294,-0.0080873,-0.017548
-0.028229,0.04654,-0.098726,-0.11185,-0.023651,-0.017548,0.0016785,0.019074
-0.060578,0.031281,-0.08896,-0.1033,-0.032197,-0.016022,-0.010834,-0.0086976
-0.075837,0.019684,-0.088045,-0.091096,-0.027314,-0.017243,-0.037079,-0.017548
-0.035554,-0.012055,-0.048676,-0.067292,-0.025177,-0.013581,-0.037385,0.011444
-0.015412,-0.042878,-0.01236,-0.074922,-0.020905,-0.0028992,-0.0013733,0.0074769
0.015106,-0.095979,-0.018158,-0.068818,0.0053407,0.0032044,0.0019837,-0.029755
0.044099,-0.10941,-0.0080873,-0.036774,0.02121,0.013275,0.031281,-0.017548
0.061494,-0.11582,-0.0038148,-0.034943,0.039521,0.0099184,0.0028992,0.0016785
0.072175,-0.13077,-0.010834,-0.035248,0.056001,0.0032044,-0.011139,-0.016938
0.061799,-0.12192,-0.014191,-0.038911,0.059358,0.0086976,-0.0062562,-0.063325
0.04715,-0.098726,-0.016022,-0.039521,0.059663,0.009308,-0.023651,-0.085603
0.02945,-0.067597,-0.042267,-0.051118,0.059052,0.0041199,-0.016632,-0.076143
-0.0056458,-0.049592,-0.066072,-0.083772,0.04715,0.0062562,-0.002594,-0.025177
-0.030671,-0.017548,-0.092317,-0.083772,0.0053407,0.014191,-0.00076295,0.036774
-0.073396,0.017243,-0.12772,-0.099947,-0.0074769,0.0065614,-0.002594,0.012055
-0.10391,0.052338,-0.13901,-0.11673,-0.017548,-0.014801,0.0077821,-0.01236
-0.11612,0.087739,-0.13169,-0.11856,-0.027619,-0.021515,0.0035096,0.002594
-0.12314,0.069123,-0.11154,-0.11063,-0.034333,-0.012665,0.0077821,0.017548
-0.13321,0.041352,-0.073396,-0.08957,-0.038605,-0.0080873,0.018158,0.046845
-0.08896,0.0056458,-0.054475,-0.084382,-0.033417,-0.0022889,0.027924,0.085298
-0.069429,-0.045319,-0.025483,-0.052644,-0.029755,0.0065614,0.0383,0.084382
-0.033722,-0.069429,-0.002594,-0.059052,-0.0080873,0.0086976,0.031891,0.10575
-0.011444,-0.08011,-0.010834,-0.067292,0.0056458,0.0013733,0.023346,0.091707
-0.00015259,-0.08835,-0.029755,-0.077058,0.019989,0.018463,0.032807,0.066377
0.0071717,-0.10178,-0.014191,-0.073091,0.027924,0.056306,0.057221,0.059663
0.023346,-0.12161,-0.0065614,-0.047456,0.032197,0.057527,0.037995,0.012665
0.0383,-0.10697,-0.018158,-0.046235,0.048066,0.040742,0.022126,-0.044709
0.047456,-0.098726,-0.0074769,-0.028229,0.062104,0.03006,0.025483,-0.11551
0.022736,-0.048371,-0.049287,-0.069734,0.059663,0.013886,-0.018769,-0.10513
0.0032044,-0.050813,-0.080415,-0.091707,0.056916,-0.00015259,-0.032502,-0.075532
-0.027314,-0.010224,-0.086824,-0.09659,0.023041,0.016327,-0.017243,-0.035859
-0.050507,0.04593,-0.10422,-0.11307,-0.010834,0.020294,-0.014801,-0.0074769
-0.073396,0.063325,-0.10666,-0.089265,-0.025177,0.0050355,-0.018158,0.0019837
-0.098421,0.078279,-0.12497,-0.094453,-0.030365,-0.005951,-0.019074,0.034333
-0.10117,0.052644,-0.11551,-0.11276,-0.0083925,-0.017243,0.015106,0.076143
-0.078889,0.034028,-0.10513,-0.11734,-0.021515,-0.0080873,0.011444,0.12222
-0.081331,0.005951,-0.060273,-0.09781,-0.029145,-0.013581,0.0019837,0.11582
-0.079805,-0.027924,-0.034333,-0.087129,-0.02884,-0.023957,0.014801,0.081636
-0.042878,-0.062409,-0.013886,-0.064851,-0.024567,0.009308,-0.0068666,0.084382
0.012055,-0.11826,0.030976,-0.044404,-0.0050355,0.057221,0.052033,0.052033
0.031891,-0.13809,-0.020905,-0.037079,0.019379,0.046235,0.098116,0.012055
0.060578,-0.13169,-0.017548,-0.02945,0.04593,0.023041,0.019379,-0.022126
0.073396,-0.14054,-0.0080873,-0.037385,0.055085,0.015412,0.0065614,-0.039216
0.056611,-0.10758,-0.0206,-0.041352,0.061189,0.010224,-0.0068666,-0.031586
0.047761,-0.095979,-0.039826,-0.05417,0.051728,0.0099184,-0.024262,-0.058137
0.02121,-0.044099,-0.084077,-0.062715,0.043793,0.0077821,-0.028534,-0.10819
-0.0065614,-0.021515,-0.094759,-0.092927,0.035859,0.0047303,-0.02121,-0.10605
-0.05478,0.063325,-0.10758,-0.10636,0.0077821,0.005951,-0.012665,-0.088045
-0.092317,0.091096,-0.12467,-0.12161,-0.0068666,-0.014801,0.015106,-0.0383
-0.10575,0.072175,-0.11337,-0.12589,-0.030976,-0.020905,0.03006,-0.019684
-0.12314,0.066682,-0.095979,-0.1091,-0.033722,-0.018769,0.0099184,0.017243
-0.11368,0.02945,-0.084077,-0.092317,-0.02884,-0.033112,0.009308,0.103
-0.095979,-0.027619,-0.08957,-0.095674,-0.025788,-0.023346,0.0013733,0.11429
-0.070954,-0.082551,-0.061189,-0.094453,-0.017243,-0.0056458,0.0053407,0.071565
-0.052033,-0.016938,-0.048676,-0.0795,-0.017243,0.012665,0.017243,0.057527
-0.019684,-0.08835,0.0013733,-0.065461,-0.018158,0.036164,0.066072,0.076143
-0.014191,-0.098421,0.016327,-0.034943,-0.013275,0.029145,0.061189,0.041962
0.016022,-0.094453,-0.0044251,-0.049592,0.013275,0.0383,0.041352,0.0080873
0.059968,-0.12375,0.0074769,-0.0383,0.038911,0.040436,0.030976,0.022736
0.07126,-0.11673,-0.0083925,-0.040131,0.050507,0.016938,-0.076753,-0.027314
0.09781,-0.12284,-0.017548,-0.039521,0.062104,0.0032044,-0.12833,-0.078889
0.066072,-0.090486,-0.049287,-0.052949,0.07187,0.025483,0.021515,-0.06363
0.029145,-0.065766,-0.074006,-0.062715,0.050202,0.032197,0.027008,-0.070039
-0.022736,-0.013886,-0.094148,-0.087434,0.029145,0.016022,0.00045777,-0.052033
-0.075837,0.032197,-0.11704,-0.10849,0.02182,-0.00076295,0.0019837,-0.011444
-0.11063,0.073396,-0.11826,-0.11185,-0.0071717,-0.0013733,0.00076295,0.0096132
-0.13382,0.082246,-0.11978,-0.11124,-0.020905,-0.0099184,0.022126,0.050507
-0.14328,0.084688,-0.10361,-0.12039,-0.037079,-0.0041199,0.031281,0.074617
-0.1384,0.06424,-0.09659,-0.12955,-0.041352,0.0077821,0.040436,0.10452
-0.10727,0.049592,-0.098116,-0.11521,-0.048371,0.034333,0.068208,0.1445
-0.0022889,-0.011749,-0.050202,-0.076448,-0.051118,0.039521,0.06363,0.13382
0.089876,-0.059663,-0.030976,-0.058442,-0.020905,0.02945,0.06424,0.11704
0.029755,-0.11154,0.014801,-0.0383,0.0010681,0.024872,0.044404,0.077363
0.019989,-0.18051,0.06302,-0.016632,0.011749,0.010224,-0.012055,-0.010224
-0.016938,-0.14755,0.0047303,-0.016632,0.048371,-0.013275,-0.059663,-0.08835
-0.046845,-0.12406,0.016632,-0.027619,0.06302,-0.023957,-0.069429,-0.093233
-0.029755,-0.10239,-0.037995,-0.064546,0.058137,-0.0041199,-0.02121,-0.086213
0.010834,-0.086519,-0.041657,-0.059358,0.059663,-0.0035096,0.0099184,-0.11398
-0.00015259,-0.057527,-0.065156,-0.070344,0.043793,-0.0086976,0.01297,-0.11185
-0.030365,-0.02884,-0.070954,-0.085908,0.033722,-0.0062562,0.0065614,-0.092012
-0.066072,0.019989,-0.084077,-0.087434,0.02121,-0.016022,-0.013275,-0.016632
-0.084993,0.054475,-0.12711,-0.10361,0.0053407,-0.0047303,-0.0074769,0.050507
-0.091707,0.07187,-0.14633,-0.11795,-0.013275,0.016327,0.030976,0.10239
-0.073091,0.066072,-0.12711,-0.12436,-0.041047,0.035554,0.048066,0.14084
-0.053254,0.033417,-0.10849,-0.11093,-0.043183,0.024262,0.029755,0.12436
-0.048371,0.020294,-0.095369,-0.11704,-0.035554,-0.0032044,0.0071717,0.071565
-0.02945,-0.0047303,-0.060883,-0.077363,-0.03769,-0.0013733,0.015412,0.057832
0.0019837,-0.010529,-0.039216,-0.068818,-0.029755,-0.005951,-0.0056458,0.053559
0.054475,-0.052033,-0.0047303,-0.046845,-0.0074769,0.0050355,0.0013733,0.011749
0.074311,-0.098726,0.010529,-0.025177,0.011749,0.011139,-0.00015259,-0.029145
0.061799,-0.10056,0.017853,-0.033417,0.0383,0.011444,-0.0050355,-0.057832
0.050202,-0.16739,-0.023041,-0.053254,0.051423,0.0062562,-0.010529,-0.10391
0.032807,-0.15702,-0.030976,-0.045319,0.056001,0.005951,-0.0032044,-0.11307
0.0086976,-0.1146,-0.013581,-0.050202,0.063325,0.015412,0.02121,-0.083162
-0.0053407,-0.083772,-0.037995,-0.065766,0.061494,0.022431,0.017853,-0.052949
-0.039521,-0.042573,-0.054475,-0.086824,0.051423,0.011139,0.0010681,-0.043793
-0.095979,-0.0056458,-0.081941,-0.083467,0.025177,0.010834,0.021515,-0.019074
-0.12589,0.040436,-0.094759,-0.11124,0.0041199,0.015412,0.015106,0.059968
-0.12009,0.04715,-0.13565,-0.11063,-0.015412,0.025483,0.027008,0.11246
-0.13016,0.07248,-0.11429,-0.10086,-0.030976,0.017243,0.025483,0.1088
-0.14084,0.082551,-0.085298,-0.11154,-0.035554,0.0041199,0.041657,0.068208
-0.12772,0.081636,-0.10697,-0.12314,-0.025483,0.0010681,0.035554,0.086519
-0.081331,0.056611,-0.1088,-0.094759,-0.030671,0.0099184,0.035554,0.12863
-0.028534,-0.037385,-0.068208,-0.077363,-0.028534,0.009308,0.027008,0.081941
0.019074,-0.068513,-0.049287,-0.065461,-0.029145,-0.0016785,0.0086976,0.038911
0.039521,-0.088045,-0.018463,-0.063325,0.0019837,0.002594,-0.0044251,-0.00076295
0.063935,-0.11765,0.0041199,-0.044404,0.016938,0.016938,-0.011444,-0.030671
0.065766,-0.14145,0.0096132,-0.038605,0.025177,0.0071717,-0.00015259,-0.048981
0.056306,-0.16373,0.019684,-0.021515,0.055085,0.0068666,-0.0022889,-0.063935
0.044099,-0.1445,0.0013733,-0.042573,0.059663,0.005951,-0.016632,-0.065461
0.032807,-0.11246,-0.010224,-0.056916,0.056001,0.0065614,-0.013275,-0.057832
0.017853,-0.084993,-0.032197,-0.052338,0.052949,0.019074,0.0010681,-0.077058
0.013275,-0.070344,-0.073396,-0.065156,0.039216,0.019989,-0.01297,-0.071565
-0.042573,0.01236,-0.11276,-0.093538,0.02884,-0.0053407,-0.019379,-0.066682
-0.073701,0.048371,-0.12436,-0.10575,0.0080873,-0.0053407,-0.0068666,-0.038911
-0.11612,0.067903,-0.1149,-0.11795,-0.019684,-0.018769,-0.0013733,0.02182
-0.11124,0.063325,-0.11276,-0.10697,-0.031281,-0.0099184,0.0010681,0.070649
-0.08896,0.055085,-0.1091,-0.1091,-0.035554,-0.0068666,0.0080873,0.12039
-0.069734,0.03006,-0.095064,-0.11368,-0.029755,-0.0090028,0.018158,0.13016
-0.075837,0.03006,-0.0795,-0.092317,-0.039826,0.0019837,0.034943,0.10208
-0.05539,-0.019684,-0.041657,-0.091402,-0.045624,0.010834,0.045014,0.10086
-0.040436,-0.052949,-0.023651,-0.062715,-0.024262,0.023041,0.052949,0.08072
-0.037079,-0.084077,-0.010529,-0.054475,0.0041199,0.038911,0.059663,0.015106
0.010529,-0.12467,0.005951,-0.043183,0.013886,0.059052,0.07187,-0.015106
0.065766,-0.13046,0.0032044,-0.024567,0.029755,0.055695,0.030365,-0.056611
0.074311,-0.14664,-0.00076295,-0.028534,0.052949,0.016022,-0.037079,-0.097505
0.056001,-0.092317,-0.050813,-0.050507,0.057221,-0.0010681,-0.063935,-0.099336
0.039826,-0.098726,-0.017853,-0.058137,0.050507,0.0086976,-0.023651,-0.10147
-0.0041199,-0.048066,-0.047761,-0.063325,0.056916,0.0099184,0.017853,-0.09781
-0.033112,-0.027924,-0.068818,-0.091402,0.053559,-0.0080873,0.019989,-0.025788
-0.050507,0.0032044,-0.096895,-0.10452,0.021515,0.01297,0.02182,0.017548
-0.081025,0.046235,-0.11124,-0.11887,0.0035096,0.012055,-0.0010681,0.0032044
-0.087739,0.059358,-0.12619,-0.11917,-0.012055,-0.011139,-0.014801,0.017548
-0.098116,0.061494,-0.12619,-0.0972,-0.035554,-0.0016785,-0.0047303,0.077974
-0.10788,0.053864,-0.10513,-0.10544,-0.041657,-0.0035096,0.0047303,0.099031
-0.11521,0.066072,-0.10025,-0.10147,-0.034943,-0.011749,0.023651,0.10422
-0.1033,0.044709,-0.057832,-0.092622,-0.027008,-0.0050355,0.043793,0.10788
-0.013581,-0.028534,-0.040436,-0.073701,-0.022126,-0.0013733,0.041657,0.12009
0.061494,-0.078279,-0.0096132,-0.041047,-0.009308,0.00015259,0.014801,0.063325
0.041047,-0.12192,0.02182,-0.050507,0.015106,0.0013733,0.002594,0.0053407
0.02884,-0.13169,0.0080873,-0.041352,0.037995,0.0013733,0.013275,-0.059663
0.012665,-0.17472,0.0013733,-0.037385,0.045014,0.011139,0.0016785,-0.10605
0.0010681,-0.17472,-0.022736,-0.04715,0.053864,0.024872,-0.0019837,-0.085908
0.0047303,-0.088045,-0.037995,-0.031281,0.060273,0.033112,0.015106,-0.086824
0.013886,-0.095674,-0.041962,-0.049592,0.044099,0.02884,0.011139,-0.062715
-0.009308,-0.049897,-0.076143,-0.093843,0.052033,0.02121,0.00045777,-0.024567
-0.035248,-0.049897,-0.059968,-0.095674,0.038911,0.0032044,-0.0053407,-0.010834
-0.048371,-0.0083925,-0.11276,-0.099947,0.011749,-0.0028992,-0.015106,0.02945
-0.059663,0.059663,-0.1265,-0.11765,-0.0019837,-0.0068666,0.002594,0.091707
-0.053864,0.074006,-0.12528,-0.11521,-0.029755,-0.011139,0.0028992,0.10666
-0.067292,0.077668,-0.11826,-0.12131,-0.047761,-0.013275,0.015106,0.085908
-0.056611,0.037995,-0.0972,-0.11246,-0.056611,0.0013733,0.03006,0.084688
-0.095979,0.043793,-0.094759,-0.11246,-0.049592,0.009308,0.034943,0.088045
-0.076753,0.0071717,-0.053864,-0.08896,-0.041352,0.011139,0.025788,0.08835
-0.030976,-0.036774,-0.028534,-0.069123,-0.021515,0.016938,0.033722,0.05539
0.012055,-0.067903,-0.013886,-0.038605,0.010834,0.00076295,0.0053407,0.023651
0.0041199,-0.10452,0.010224,-0.029145,0.023651,0.0077821,-0.010224,0.014801
0.014801,-0.095369,0.0013733,-0.045014,0.043488,0.0090028,0.0053407,0.0032044
0.016632,-0.062715,0.0053407,-0.040742,0.056916,0.024567,0.023957,-0.045624
0.013275,-0.099947,-0.018158,-0.055085,0.050507,0.032502,0.026703,-0.10544
0.0071717,-0.11429,-0.022126,-0.045014,0.042267,0.045014,0.026703,-0.090181
-0.01297,-0.098726,-0.050202,-0.060578,0.034028,0.042573,0.019684,-0.082856
-0.03769,-0.060273,-0.082856,-0.082246,0.03769,0.022126,-0.015106,-0.093843
-0.036469,-0.032197,-0.08957,-0.080415,0.02884,0.009308,-0.01236,-0.040436
-0.045624,-0.025483,-0.11276,-0.084688,0.017853,0.0099184,0.005951,-0.0074769
-0.070039,0.048371,-0.11643,-0.10697,-0.0090028,0.0010681,0.002594,0.015412
-0.093843,0.083162,-0.10025,-0.11154,-0.023651,-0.013275,0.015412,0.092317
-0.088045,0.057527,-0.092012,-0.11673,-0.034638,-0.014191,0.048066,0.103
-0.077668,0.022736,-0.093538,-0.10513,-0.030976,-0.0041199,0.03769,0.096895
-0.076143,0.021515,-0.073396,-0.092927,-0.016632,-0.012055,-0.0022889,0.076448
-0.028534,-0.0022889,-0.042267,-0.075837,-0.02121,-0.015412,0.0013733,0.044404
0.019074,-0.046235,-0.030365,-0.076448,-0.0096132,0.0028992,0.05539,0.013275
-0.0032044,-0.083467,-0.026703,-0.069734,0.011444,0.020905,0.038911,-0.00045777
-0.012055,-0.11673,0.0041199,-0.042878,0.015106,0.034333,0.02121,0.0019837
0.016632,-0.12558,-0.0016785,-0.031586,0.028229,0.035554,0.013581,0.0086976
0.031586,-0.12558,0.005951,-0.027619,0.05539,0.010529,-0.078279,-0.023041
0.045624,-0.10758,-0.017548,-0.045319,0.048066,0.039216,-0.05478,-0.053254
0.059052,-0.11551,-0.020905,-0.068513,0.04715,0.037079,0.066072,-0.057832
0.020905,-0.077363,-0.050202,-0.064546,0.048981,0.0053407,0.0074769,-0.050507
-0.023041,-0.022736,-0.081331,-0.097505,0.038911,0.011139,-0.0096132,-0.053254
-0.070039,0.015106,-0.10025,-0.09659,0.011749,0.0028992,0.0065614,0.00045777
-0.11398,0.048676,-0.12131,-0.11704,-0.013275,0.015106,0.013581,0.042878
-0.11948,0.062715,-0.12222,-0.1146,-0.027314,0.0047303,0.021515,0.077363
-0.11002,0.065461,-0.12619,-0.11063,-0.033722,0.014191,0.043488,0.10575
-0.093538,0.051728,-0.11368,-0.10575,-0.035554,0.010224,0.059052,0.082246
-0.08011,0.043183,-0.092622,-0.10147,-0.032197,-0.012055,0.009308,0.016022
-0.041962,0.0019837,-0.063935,-0.084688,-0.033417,-0.0016785,-0.00076295,-0.0022889
-0.0062562,-0.039521,-0.034638,-0.069429,-0.034333,-0.011139,0.0099184,0.026703
0.0028992,-0.073701,-0.0068666,-0.060883,-0.0056458,-0.022736,-0.022431,0.011749
0.034028,-0.10483,0.015717,-0.0383,0.0056458,-0.0032044,-0.016327,-0.024872
0.043183,-0.13016,0.027619,-0.013275,0.027314,0.015106,0.041047,-0.028534
0.078584,-0.17288,0.005951,-0.022126,0.060273,0.010224,0.023957,-0.0096132
0.093843,-0.15579,-0.037995,-0.047456,0.083772,0.0019837,-0.016632,0.012665
0.052949,-0.10941,-0.031891,-0.068208,0.083467,-0.00015259,-0.010834,-0.054475
0.034333,-0.079805,-0.036469,-0.065156,0.065156,0.0010681,-0.013581,-0.081941
-0.0044251,-0.048066,-0.067292,-0.073091,0.04593,0.0032044,-0.014191,-0.067597
-0.069734,-0.0068666,-0.081941,-0.085603,0.020905,-0.00015259,-0.002594,-0.057832
-0.11002,0.041352,-0.10605,-0.10758,0.013581,0.0044251,0.009308,-0.01236
-0.12375,0.069734,-0.11948,-0.11734,-0.0090028,0.013275,0.059358,0.04593
-0.10391,0.07187,-0.12284,-0.10666,-0.041962,0.026703,0.059358,0.092012
-0.12558,0.067292,-0.13535,-0.11276,-0.044404,0.016938,0.023957,0.12222
-0.13138,0.058747,-0.092927,-0.098726,-0.040436,0.0044251,0.019074,0.097505
-0.10147,0.057221,-0.10117,-0.10971,-0.032807,0.002594,0.015412,0.12985
-0.077974,0.011444,-0.061189,-0.087434,-0.028534,0.011139,0.0035096,0.121
-0.048371,-0.03006,-0.040131,-0.065766,-0.013581,0.018769,0.016022,0.070649
0.002594,-0.069429,-0.017548,-0.059358,0.0013733,0.0086976,0.027008,0.045319
0.012055,-0.10056,0.019379,-0.036469,0.0080873,0.011444,0.051728,-0.014496
0.034028,-0.16068,0.052338,-0.026703,0.037079,0.018769,0.071565,-0.041352
0.056306,-0.19486,0.036774,-0.018158,0.048371,0.023346,0.042878,-0.087129
0.055085,-0.13657,-0.025483,-0.037385,0.055695,0.0044251,-0.028534,-0.1796
0.043183,-0.093538,-0.033112,-0.066987,0.065766,-0.02121,-0.13077,-0.17655
0.02121,-0.070039,-0.062409,-0.06363,0.051728,0.017243,-0.062104,-0.1442
0.01297,-0.034638,-0.073091,-0.089876,0.033417,0.034333,0.039521,-0.07187
-0.028534,0.0065614,-0.10269,-0.10575,0.014801,0.016022,0.019989,0.005951
-0.056611,0.027619,-0.10636,-0.10697,0.0035096,0.014496,0.0077821,0.069429
-0.068208,0.061189,-0.11704,-0.11582,-0.012665,-0.0041199,-0.0065614,0.10483
-0.068208,0.051118,-0.12467,-0.10544,-0.02945,-0.018769,-0.0068666,0.10605
-0.040436,0.049592,-0.10544,-0.10666,-0.034638,-0.015412,0.015412,0.10391
-0.041962,0.030365,-0.10513,-0.0972,-0.029755,-0.0050355,0.036164,0.095979
-0.061494,0.009308,-0.081331,-0.090486,-0.030671,0.0047303,0.033722,0.067903
-0.052644,-0.024872,-0.046235,-0.07248,-0.024567,0.022431,0.041962,0.06302
-0.039521,-0.053864,-0.03769,-0.07126,0.0028992,0.019379,0.017853,0.034943
-0.015412,-0.099947,0.013581,-0.050813,0.018769,0.0062562,-0.0041199,0.017548
0.017853,-0.14176,0.024262,-0.034638,0.019379,0.015106,0.017243,0.0086976
0.028229,-0.13413,0.0083925,-0.033112,0.03006,0.026398,0.011749,-0.002594
0.010529,-0.078279,-0.010834,-0.035248,0.052338,0.018769,0.011139,-0.025788
0.0013733,-0.02884,-0.015412,-0.036469,0.050507,0.019074,0.02182,-0.061189
0.018158,-0.11429,-0.032502,-0.044709,0.043793,0.0206,0.0050355,-0.063935
-0.0090028,-0.084382,-0.063325,-0.078584,0.049287,0.019989,-0.011139,-0.043488
-0.028229,-0.041352,-0.084688,-0.084382,0.034333,0.016022,-0.0074769,-0.039826
-0.050813,-0.0044251,-0.10086,-0.09659,0.024872,0.0062562,0.01297,-0.0096132
-0.10025,0.052644,-0.12619,-0.11032,0.0041199,0.0065614,0.0032044,0.015717
-0.12558,0.08011,-0.12161,-0.13443,-0.024262,-0.00015259,0.018158,0.059663
-0.11154,0.065766,-0.11856,-0.12345,-0.028534,0.018463,0.052338,0.10605
-0.086824,0.067292,-0.096895,-0.10636,-0.040742,0.045319,0.060578,0.089876
-0.10178,0.11185,-0.1033,-0.10056,-0.047761,0.026093,0.041962,0.088045
-0.081941,0.021515,-0.075227,-0.095369,-0.03769,0.0047303,0.015412,0.089265
-0.020905,-0.068513,-0.027924,-0.078279,-0.016327,0.0010681,0.016632,0.087739
-0.00076295,-0.096895,-0.023041,-0.059052,0.017243,0.0080873,0.037079,0.072175
0.030365,-0.13046,-0.0053407,-0.047456,0.029145,0.0080873,0.05417,0.035554
0.03006,-0.14084,0.017853,-0.038605,0.033112,0.0071717,0.023957,-0.0010681
0.050507,-0.10239,-0.0206,-0.035248,0.051423,0.022736,0.019379,-0.030976
0.061799,-0.070344,-0.016022,-0.040742,0.047761,0.025483,0.017548,-0.057832
0.068208,-0.11215,0.0016785,-0.050813,0.043183,0.02945,-0.00045777,-0.075532
0.052033,-0.098726,-0.030976,-0.055695,0.048371,0.010224,-0.024262,-0.11429
0.0086976,-0.071565,-0.070039,-0.072175,0.04593,0.0047303,-0.032807,-0.13138
-0.032807,-0.041962,-0.097505,-0.080415,0.027008,-0.005951,-0.024872,-0.11337
-0.035554,-0.077668,-0.10056,-0.084688,-0.0013733,0.00076295,-0.014801,-0.051118
-0.059358,-0.0086976,-0.11215,-0.1033,-0.00076295,-0.0080873,-0.024262,0.0010681
-0.085298,0.075532,-0.12161,-0.10666,-0.0074769,-0.017243,-0.0096132,0.017243
-0.0972,0.070649,-0.12131,-0.11307,-0.043793,0.01236,0.031891,0.04593
-0.077058,0.086519,-0.11032,-0.12284,-0.059358,0.013275,0.026093,0.081636
-0.11154,0.048676,-0.075837,-0.10391,-0.043183,-0.0032044,0.010834,0.060578
-0.094453,-0.0028992,-0.038911,-0.08072,-0.028229,-0.0090028,-0.0022889,0.039521
-0.074922,-0.023651,-0.033722,-0.075837,-0.011444,-0.0086976,-0.020905,0.060578
-0.013275,-0.082246,0.0053407,-0.041657,0.011749,0.019074,0.010529,0.059358
0.048371,-0.14084,0.009308,-0.031281,0.017243,0.026703,0.057221,0.044099
0.050507,-0.1387,-0.016632,-0.041657,0.045014,0.0038148,-0.019074,0.016632
0.045014,-0.10544,-0.0035096,-0.048981,0.051423,0.021515,-0.019074,0.01297
0.027619,-0.072175,-0.018769,-0.046845,0.049287,0.035248,0.035248,-0.009308
0.020294,-0.074311,-0.026703,-0.048371,0.056306,0.026093,0.027008,-0.066072
0.0035096,-0.077974,-0.050813,-0.059052,0.059358,0.021515,0.011139,-0.051118
-0.02121,-0.044404,-0.068513,-0.066987,0.049897,0.018158,0.013581,0.0065614
-0.042573,-0.014496,-0.092622,-0.095064,0.029755,0.00045777,0.0090028,0.0206
-0.025177,0.037995,-0.11063,-0.11307,0.015106,-0.017243,-0.0062562,0.014801
-0.061799,0.06424,-0.12619,-0.11887,-0.012665,-0.02182,0.0065614,0.044099
-0.099947,0.066682,-0.1265,-0.12314,-0.044709,-0.0035096,0.035859,0.081331
-0.022126,0.058442,-0.10727,-0.12345,-0.045319,-0.0028992,0.024872,0.10147
-0.081331,0.044709,-0.103,-0.11856,-0.050813,-0.014801,0.013886,0.094453
-0.10422,0.016022,-0.077974,-0.090791,-0.035248,0.0028992,0.014191,0.087739
-0.093538,-0.024872,-0.038605,-0.07248,-0.02884,0.02121,0.024262,0.049287
-0.089265,-0.026093,-0.023041,-0.070954,-0.0071717,0.019989,0.00045777,-0.0032044
-0.081941,-0.061494,-0.0044251,-0.052644,0.0028992,0.016327,-0.0068666,-0.016632
-0.022126,-0.11765,0.027314,-0.022736,0.014191,0.014191,0.0028992,-0.041962
-0.0019837,-0.13352,0.0038148,-0.01297,0.056306,0.031586,0.02182,-0.067903
0.035554,-0.168,0.033722,-0.022431,0.085908,0.030671,0.03006,-0.05478
0.067903,-0.18479,0.0022889,-0.042878,0.059968,0.034943,0.0383,-0.035554
0.068208,-0.14786,-0.032197,-0.051118,0.059968,0.0099184,0.0010681,-0.027008
0.059358,-0.092012,-0.054475,-0.058137,0.057832,-0.0062562,-0.0047303,-0.025483
0.027008,-0.034028,-0.094453,-0.079194,0.038911,-0.0053407,-0.0022889,-0.01297
-0.029145,0.040131,-0.10697,-0.099947,0.032807,-0.0028992,-0.01297,-0.0071717
-0.065461,0.070039,-0.12436,-0.12955,-0.0041199,0.005951,0.017243,0.023957
-0.10178,0.070039,-0.11734,-0.11917,-0.015717,0.025177,0.061494,0.065156
-0.079194,0.076448,-0.11856,-0.10636,-0.034333,0.027924,0.070649,0.076448
-0.044709,0.049592,-0.099336,-0.10788,-0.0383,0.018463,0.038911,0.084688
-0.043183,0.042573,-0.099336,-0.092927,-0.036774,-0.00076295,0.005951,0.052338
-0.051423,0.030671,-0.061189,-0.082246,-0.035554,-0.034333,-0.050813,0.018769
-0.053559,-0.03006,-0.040131,-0.076448,-0.021515,-0.020294,-0.10147,0.034028
-0.044404,-0.058137,-0.0044251,-0.071565,-0.0068666,0.025177,0.016022,0.019074
-0.040742,-0.091707,0.0038148,-0.056306,-0.0019837,0.017243,0.03006,0.012055
-0.010834,-0.12375,0.0019837,-0.032807,0.016022,0.016632,0.018158,0.029755
0.013275,-0.13352,-0.0086976,-0.029145,0.043183,0.036164,0.02884,-0.029755
0.031891,-0.14084,-0.010224,-0.0383,0.058442,0.023957,0.016632,-0.081025
0.034943,-0.1265,-0.011749,-0.035554,0.055695,0.010834,0.029755,-0.087739
0.03006,-0.087739,-0.090486,-0.05478,0.05539,0.014496,0.035248,-0.068208
-0.013275,-0.034028,-0.070954,-0.081331,0.042878,0.023041,0.011749,-0.022431
-0.028534,-0.030976,-0.075227,-0.088655,0.028229,0.009308,-0.0074769,-0.055695
-0.042878,0.021515,-0.093538,-0.10727,0.0050355,0.016327,-0.0050355,-0.06302
-0.062715,0.049287,-0.10697,-0.11734,-0.0053407,0.013886,-0.011444,0.0096132
-0.064546,0.056611,-0.11612,-0.10178,-0.010529,0.0071717,-0.0022889,0.058137
-0.049897,0.06363,-0.11246,-0.11154,-0.022431,-0.0047303,-0.0035096,0.081941
-0.026398,0.011444,-0.11337,-0.095064,-0.036774,-0.011139,-0.0062562,0.080415
-0.041352,0.02121,-0.090486,-0.10269,-0.028229,-0.0010681,0.0065614,0.061189
-0.027008,0.0053407,-0.052033,-0.081025,-0.023651,0.0062562,0.02182,0.061494
0.0010681,-0.05478,-0.005951,-0.056306,-0.02884,0.023957,0.028229,0.055695
0.0047303,-0.103,0.009308,-0.049287,0.0065614,0.012055,-0.0071717,0.017548
0.0013733,-0.10971,0.002594,-0.033112,0.024262,0.0019837,-0.013581,-0.019684
-0.012055,-0.090181,-0.005951,-0.047456,0.034333,0.0062562,-0.0096132,-0.02884
0.066072,-0.061799,0.0032044,-0.049592,0.051423,0.0041199,0.0053407,-0.030365
0.026703,-0.1207,-0.010224,-0.047761,0.051118,0.012665,0.0047303,-0.022126
-0.034943,-0.11032,-0.027008,-0.059663,0.058137,0.026093,0.016022,-0.041047
-0.051118,-0.062715,-0.063935,-0.081331,0.043793,0.035248,0.044404,-0.0096132
-0.099336,0.033722,-0.075227,-0.095369,0.027008,0.034028,0.056306,0.0035096
-0.12741,-0.00015259,-0.10727,-0.09781,0.0074769,0.04715,0.04715,-0.01297
-0.11643,0.009308,-0.11429,-0.10483,-0.012055,0.042267,0.059663,0.024872
-0.10544,0.040742,-0.095064,-0.1033,-0.020294,0.011139,0.051118,0.085298
-0.11856,0.066682,-0.12284,-0.11734,-0.0206,0.0010681,0.018158,0.082856
-0.10849,0.047761,-0.10239,-0.089265,-0.038605,0.0022889,0.023957,0.1146
-0.083772,0.013886,-0.081331,-0.092317,-0.031281,0.010224,0.027924,0.1384
-0.057221,0.0044251,-0.081941,-0.087434,-0.022126,-0.0050355,0.0077821,0.11551
-0.022736,-0.039521,-0.051728,-0.081025,-0.025788,-0.017243,-0.00015259,0.077974
0.023651,-0.065461,-0.019684,-0.069734,-0.010529,-0.0071717,0.00076295,0.059663
0.049592,-0.094759,0.010529,-0.053254,0.026093,0.0010681,-0.0022889,0.0071717
0.07248,-0.1326,-0.0044251,-0.035248,0.047456,-0.0056458,-0.021515,-0.040742
0.062104,-0.12741,-0.0065614,-0.042267,0.055085,-0.014801,-0.033112,-0.058747
0.061189,-0.15,-0.0044251,-0.03769,0.05417,-0.0080873,-0.023651,-0.084077
0.065461,-0.13687,-0.032197,-0.038911,0.053864,0.013275,-0.0074769,-0.092317
0.038911,-0.10086,-0.031586,-0.045319,0.046845,0.013886,-0.011139,-0.12406
-0.0010681,-0.026703,-0.07126,-0.069734,0.052949,0.022736,-0.017243,-0.13596
0.00076295,-0.025788,-0.066377,-0.08835,0.041962,0.024872,0.0038148,-0.095064
-0.016938,0.00045777,-0.10697,-0.097505,0.013275,-0.0047303,0.025177,-0.0383
-0.062104,0.047456,-0.11551,-0.11032,0.0056458,-0.0013733,0.019074,0.025788
-0.099336,0.08011,-0.11673,-0.12039,-0.0044251,0.0028992,0.014191,0.088655
-0.13413,0.088045,-0.12039,-0.12589,-0.035859,-0.005951,0.0013733,0.089265
-0.13382,0.08072,-0.10086,-0.11765,-0.053864,0.0019837,0.0074769,0.0795
-0.11948,0.053864,-0.095064,-0.1033,-0.043793,0.018158,0.041352,0.11429
-0.081941,0.016632,-0.070954,-0.092622,-0.038605,0.016632,0.045624,0.12467
-0.025483,-0.02945,-0.042573,-0.070344,-0.034638,0.023346,0.039826,0.089265
0.023651,-0.099641,0.011444,-0.052338,-0.0096132,0.028229,0.041962,0.049592
0.045624,-0.16403,0.038911,-0.031586,0.010529,0.012665,0.0090028,0.012665
0.044404,-0.16098,0.020294,-0.027008,0.030365,0.0044251,-0.0010681,-0.04654
0.009308,-0.11856,-0.0096132,-0.033722,0.057221,0.0080873,-0.002594,-0.095674
-0.0022889,-0.10575,0.00015259,-0.041047,0.050507,0.022126,-0.0090028,-0.091402
0.022126,-0.11154,-0.0065614,-0.045319,0.054475,0.041352,0.016632,-0.07187
0.0016785,-0.092927,-0.042267,-0.053559,0.065461,0.02121,0.0010681,-0.085298
-0.025788,-0.032502,-0.084077,-0.083772,0.059358,-0.011139,-0.027314,-0.043183
-0.041352,0.009308,-0.10269,-0.0972,0.044099,-0.023651,-0.024567,-0.0050355
-0.048676,0.039521,-0.12375,-0.11307,0.025788,-0.015412,-0.015717,0.014191
-0.053559,0.053864,-0.13077,-0.11856,-0.0056458,-0.0071717,0.011749,0.041962
-0.08896,0.053254,-0.11276,-0.11063,-0.034638,-0.015717,0.0077821,0.072786
-0.08957,0.065156,-0.1091,-0.12161,-0.04654,0.0044251,0.0068666,0.081331
-0.092927,0.03769,-0.094148,-0.092317,-0.043183,0.014496,0.027008,0.095674
-0.075837,0.044404,-0.077363,-0.086824,-0.035248,0.014191,0.020294,0.11765
-0.022431,-0.010529,-0.019684,-0.057527,-0.034638,0.014801,0.027924,0.09659
0.011444,-0.056611,-0.058442,-0.061799,-0.020905,0.018463,0.03006,0.057221
0.029145,-0.070039,-0.019684,-0.063325,0.02121,0.020905,0.015412,0.027314
0.037995,-0.1088,0.009308,-0.035554,0.021515,0.018158,0.021515,0.0047303
0.031891,-0.12253,-0.005951,-0.032197,0.023957,0.015412,0.0080873,-0.021515
0.025788,-0.11765,-0.0053407,-0.038605,0.044099,0.014191,0.0019837,-0.067903
0.057832,-0.103,-0.01297,-0.030976,0.052338,0.013275,-0.002594,-0.056001
0.033112,-0.10849,-0.020905,-0.043488,0.055085,0.0080873,-0.014801,-0.06363
0.0077821,-0.077668,-0.041047,-0.061799,0.059968,0.0083925,-0.017548,-0.070649
-0.013581,-0.091707,-0.051728,-0.077668,0.051423,0.017853,-0.002594,-0.039216
-0.045319,-0.082551,-0.10452,-0.092927,0.017243,0.011444,-0.00045777,-0.0096132
-0.061799,0.041352,-0.11032,-0.11368,-0.0019837,0.0071717,0.0019837,-0.016327
-0.084993,0.040742,-0.11124,-0.11521,-0.018158,-0.0056458,0.0099184,0.0086976
-0.073396,0.073396,-0.11643,-0.11337,-0.026398,-0.020294,0.013581,0.064546
-0.099336,0.076753,-0.11612,-0.121,-0.029755,-0.019989,0.028229,0.06302
-0.10697,0.062409,-0.095979,-0.098726,-0.034333,-0.012055,0.015717,0.043488
-0.10391,0.043793,-0.075837,-0.08957,-0.042573,-0.0013733,0.011444,0.046235
-0.056916,-0.019684,-0.034028,-0.065461,-0.036469,0.016022,0.019684,0.1207
-0.037079,-0.048981,-0.017548,-0.069123,-0.011444,0.027924,0.041047,0.15152
-0.010529,-0.077363,-0.014496,-0.050507,0.00045777,0.034333,0.045319,0.077363
0.036164,-0.099336,0.010834,-0.043183,0.014801,0.027314,0.027008,0.023957
0.023346,-0.068513,-0.0047303,-0.049592,0.042878,0.022736,0.01297,-0.034333
0.014191,-0.11154,-0.011444,-0.048981,0.054475,0.011139,0.02182,-0.081941
0.019989,-0.1442,-0.015412,-0.050813,0.067903,0.024262,0.027314,-0.090181
0.019379,-0.11673,-0.012665,-0.061799,0.05417,0.019074,-0.0041199,-0.095369
-0.019684,-0.068208,-0.057221,-0.08072,0.047456,0.021515,-0.0028992,-0.093843
-0.058137,-0.024262,-0.076753,-0.089265,0.03769,0.023957,-0.0028992,-0.084077
-0.065156,0.0016785,-0.099336,-0.09659,0.0028992,0.02945,-0.0050355,-0.052033
-0.070954,0.035859,-0.12436,-0.092622,0.0010681,0.012665,-0.011139,0.0080873
-0.066682,0.073701,-0.12467,-0.1033,-0.0068666,-0.0080873,-0.016632,0.052338
-0.049897,0.094759,-0.11032,-0.10941,-0.033722,-0.005951,-0.0065614,0.069734
-0.030365,0.011444,-0.081331,-0.098421,-0.043488,-0.005951,0.0041199,0.070649
-0.04715,0.0053407,-0.090486,-0.096284,-0.039216,-0.0035096,-0.012665,0.074617
-0.033722,-0.020294,-0.059968,-0.083772,-0.029145,-0.00076295,-0.012055,0.057221
-0.0096132,-0.042573,-0.038605,-0.060883,-0.023041,-0.0035096,0.0080873,0.08011
0.024872,-0.074617,-0.016938,-0.070954,0.0032044,0.011444,0.036164,0.076448
0.0071717,-0.083467,-0.0053407,-0.049287,0.019074,0.016022,0.024872,0.029145
0.010834,-0.11337,-0.0053407,-0.037385,0.033417,0.032197,0.040436,0.019684
0.039521,-0.13291,0.0013733,-0.033112,0.051423,0.050507,0.062409,-0.0044251
0.053559,-0.13199,-0.019074,-0.045014,0.053254,0.027924,0.027008,-0.038605
0.034333,-0.10544,-0.017548,-0.055085,0.053254,0.0028992,-0.018158,-0.065461
0.023041,-0.073396,-0.042573,-0.069429,0.056306,0.014191,-0.00045777,-0.0795
-0.0086976,-0.027619,-0.082856,-0.080415,0.049592,0.014191,0.0077821,-0.077363
-0.044709,-0.027619,-0.09659,-0.091096,0.023346,0.012055,0.0019837,-0.073396
-0.10513,0.0206,-0.12161,-0.10452,0.0074769,0.0022889,-0.010529,-0.02121
-0.14664,0.077363,-0.13107,-0.12039,-0.00045777,-0.0028992,-0.0047303,0.052949
-0.14359,0.085603,-0.08896,-0.095674,-0.020905,0.0062562,0.012055,0.10208
-0.1268,0.061799,-0.096895,-0.094759,-0.040436,0.012665,0.018158,0.13718
-0.096895,0.0080873,-0.057832,-0.10544,-0.045014,0.0071717,0.032197,0.11704
-0.077363,-0.023957,-0.062409,-0.093843,-0.04593,0.019379,0.042878,0.069429
-0.039521,-0.03006,-0.10361,-0.067292,-0.032197,0.0041199,0.019074,0.075837
-0.0062562,-0.017548,-0.081331,-0.049287,-0.012055,-0.010224,0.020294,0.041657
0.034028,-0.10056,0.014496,-0.041352,0.019989,-0.023957,-0.012055,-0.01236
0.043183,-0.12345,0.030365,-0.045014,0.040436,-0.02945,-0.1033,-0.045014
0.023651,-0.12009,0.0062562,-0.041352,0.041352,0.0090028,-0.090791,-0.061189
0.025177,-0.13657,-0.0016785,-0.052644,0.041657,0.016938,0.034943,-0.045624
0.030365,-0.10452,-0.010529,-0.045319,0.041047,0.012665,0.029145,-0.040436
0.033722,-0.08957,-0.0083925,-0.058137,0.049592,0.027008,-0.00076295,-0.045014
0.039521,-0.070649,-0.053254,-0.069734,0.051423,0.016938,-0.0013733,-0.028534
0.012665,-0.033417,-0.076448,-0.087129,0.030976,0.016022,0.0071717,-0.052949
-0.018769,-0.009308,-0.091402,-0.092317,0.011749,0.016938,0.011139,-0.057221
-0.058747,0.043793,-0.12222,-0.10239,0.0047303,0.0083925,0.035248,0.01297
-0.093538,0.095979,-0.12467,-0.11917,-0.0056458,0.005951,0.02182,0.04593
-0.048676,0.057527,-0.1146,-0.12345,-0.026398,0.010834,0.024872,0.06302
-0.068208,0.040131,-0.10147,-0.10452,-0.030671,0.0053407,0.030976,0.10605
-0.12924,0.05417,-0.10147,-0.099947,-0.025177,0.01236,0.041047,0.12222
