-0.11826,0.091402,-0.14847,-0.099947,-0.065461,0.057221,0.1564,0.066072
-0.084382,0.13077,-0.072175,-0.07126,-0.073091,0.054475,0.15335,0.12253
-0.069734,0.09659,-0.10025,-0.098726,-0.0090028,-0.03006,0.08011,0.10422
-0.03769,-0.053559,-0.048981,-0.12131,-0.027314,-0.0019837,0.1149,0.074617
0.0041199,-0.15854,0.017243,-0.068818,-0.057527,0.027314,0.11063,0.035859
0.027924,-0.32212,0.0096132,-0.063325,-0.0032044,-0.059052,-0.34043,-0.049287
0.023957,-0.20981,-0.01297,-0.009308,0.084382,-0.049287,-0.2385,-0.069734
0.020294,-0.10147,-0.011444,-0.041657,0.093843,0.033417,0.19516,0.056306
0.045624,-0.07248,-0.073091,-0.08896,0.074311,0.02121,0.22873,0.090791
0.036164,-0.010834,-0.019684,-0.062409,0.060578,-0.015412,-0.016327,-0.12375
0.015106,-0.058137,-0.012055,-0.014191,0.049287,-0.0016785,-0.12833,-0.22904
0.034333,-0.066987,-0.060273,-0.026398,0.029755,0.0795,0.011139,-0.1912
-0.010834,-0.0099184,-0.016327,-0.055085,0.030976,0.045624,-0.031281,-0.10452
-0.06363,0.0010681,-0.016327,-0.061494,0.053864,-0.049897,-0.059358,-0.068208
-0.092012,0.041352,-0.10025,-0.10117,0.042878,-0.073396,0.14847,0.080415
-0.13169,0.095674,-0.14298,-0.13993,-0.023346,0.099336,0.24155,0.16953
-0.10056,0.074617,-0.1146,-0.13382,-0.054475,0.039521,-0.055695,0.26932
-0.070954,0.019989,-0.15152,-0.12985,-0.084077,0.0206,0.037995,0.18845
-0.033112,-0.08011,-0.10636,-0.10849,-0.07187,0.053254,-0.00015259,0.025483
-0.048981,0.026703,-0.077974,-0.099336,-0.034333,0.018769,0.023957,0.055695
-0.049287,0.023957,-0.056611,-0.070954,-0.0035096,-0.071565,-0.0041199,0.043488
-0.041657,0.0077821,-0.040742,-0.07248,0.0013733,-0.048371,0.039826,0.048066
-0.02945,0.068513,-0.038605,-0.097505,-0.0096132,0.07248,0.03769,-0.0096132
0.010529,-0.090486,-0.0038148,0.048676,-0.020905,0.031281,-0.11307,-0.032502
0.011139,-0.14023,-0.0086976,-0.12161,-0.015106,-0.015412,-0.44968,-0.034943
-0.0019837,-0.13779,-0.015717,-0.10361,0.056916,-0.018769,-0.031281,-0.061799
0.02945,-0.16068,0.0065614,-0.044709,0.090791,0.069123,0.73655,-0.043793
0.015106,-0.14633,-0.010834,-0.041657,0.043793,0.19852,0.80491,-0.048676
0.049287,-0.14572,-0.0013733,0.026703,0.041047,0.059358,0.49271,0.031281
0.017548,-0.056611,-0.046845,-0.016022,0.098116,-0.11673,-0.089265,-0.0056458
-0.042573,0.041657,-0.12161,-0.085603,0.093233,-0.14054,-1.2749,-0.12253
-0.081331,0.092317,-0.15122,-0.13931,-0.0062562,-0.0041199,-0.79484,-0.04593
-0.12039,0.12345,-0.11673,-0.096895,-0.059968,0.0019837,0.0047303,0.016632
-0.1207,0.093233,-0.10971,-0.16342,-0.08011,0.066987,0.51835,0.077363
-0.064851,-0.044099,-0.048066,-0.22232,-0.076753,-0.00076295,-0.11246,0.14023
-0.061494,0.014496,-0.066987,-0.11704,-0.063935,-0.066377,-0.53513,0.074006
-0.063325,0.024262,-0.077363,-0.022126,-0.025788,0.034638,-0.15427,0.057527
-0.094453,0.0086976,-0.049897,-0.0206,0.014801,-0.012055,0.4686,0.036774
0.025788,-0.25864,-0.026398,-0.053254,0.011444,0.010224,0.32792,0.089265
0.072175,-0.25834,-0.034943,0.079805,0.0077821,0.083772,0.17288,0.036774
0.11826,-0.074311,-0.0044251,0.032502,0.019684,0.029145,0.20859,-0.025788
0.099947,-0.11154,-0.0056458,-0.060578,0.039521,-0.036469,0.1857,-0.029755
0.04715,0.010224,-0.038605,-0.056611,0.12253,-0.034333,-0.21103,-0.0972
-0.022431,0.028229,-0.047761,-0.12558,0.21317,0.044709,-0.26505,-0.11124
-0.02945,-0.051728,-0.023041,-0.079805,0.059663,0.084993,0.0074769,-0.087434
-0.040436,-0.066377,-0.042267,-0.05417,-0.066072,0.01236,-0.011444,-0.040436
-0.070954,-0.034638,-0.044709,-0.11337,-0.014801,0.0053407,0.024872,-0.059968
-0.11582,0.022126,-0.10239,-0.10941,0.030365,0.036164,0.025177,-0.045014
-0.12161,0.05417,-0.1323,-0.13321,0.016632,0.092622,0.098421,0.075837
-0.078279,0.074617,-0.12711,-0.1387,-0.055695,0.065156,0.1146,0.12284
-0.057527,0.039521,-0.13535,-0.11154,-0.082856,-0.01297,0.0028992,0.098116
-0.033417,0.027314,-0.074617,-0.099336,-0.054475,-0.0086976,-0.0083925,0.079194
-0.043488,0.022126,-0.070039,-0.091096,-0.044404,0.0010681,0.029755,0.072786
-0.027619,-0.011749,-0.060883,-0.060883,-0.034638,-0.020294,0.025177,0.060578
0.0041199,-0.030365,-0.044404,0.018769,-0.0086976,-0.042267,-0.041352,0.0383
0.025483,-0.079805,-0.020905,-0.11643,-0.00015259,-0.019379,-0.068208,0.026093
0.01297,-0.092927,-0.026703,-0.17777,0.0090028,-0.0056458,-0.022126,0.012665
-0.0071717,-0.078889,0.0044251,-0.030671,0.024872,-0.019074,0.0013733,-0.041962
0.0071717,-0.11826,0.015412,0.018463,0.015106,0.009308,0.009308,-0.024262
0.036164,-0.14176,-0.0080873,0.013581,0.069123,0.013275,0.053254,0.043183
0.041962,-0.19821,0.0099184,-0.038605,0.094453,0.02884,0.058137,-0.022126
0.03769,-0.23819,-0.041047,-0.056916,0.077974,-0.0080873,0.032807,-0.048676
-0.038911,-0.036774,-0.051118,-0.076448,0.094148,-0.039216,-0.072786,-0.14664
-0.078279,0.060578,-0.078889,-0.087129,0.0077821,0.11337,0.015412,-0.12741
-0.059052,0.04593,-0.12222,-0.078584,-0.026703,0.093233,0.098116,0.023041
-0.065156,0.037995,-0.12772,-0.10941,0.00076295,-0.02182,-0.05539,0.025788
-0.092927,0.045319,-0.10819,-0.11185,-0.013581,-0.053254,-0.030365,0.054475
-0.11612,0.036164,-0.06302,-0.12589,-0.049897,-0.034943,0.022126,0.13413
-0.14786,0.088655,-0.085908,-0.10971,-0.061494,0.049592,0.19272,0.1503
-0.10758,0.11948,-0.095064,-0.1088,-0.037079,0.032197,0.2089,0.14694
-0.093233,0.08957,-0.066987,-0.070344,-0.00076295,-0.03006,-0.10361,0.052033
-0.042573,-0.0056458,-0.059968,-0.065156,-0.0050355,-0.025483,-0.35477,0.017243
0.033112,-0.010834,-0.029145,-0.072786,-0.0053407,-0.015412,-0.12345,0.11032
0.011444,-0.036164,-0.0086976,-0.075532,0.0077821,0.048676,0.34684,0.057221
-0.049287,-0.12192,-0.00015259,-0.031281,0.02182,0.052338,0.24643,-0.014801
0.076753,-0.20676,-0.0013733,-0.025483,0.041657,0.016022,-0.16434,-0.030976
0.10758,-0.18479,-0.040742,-0.043183,0.090181,-0.063935,-0.40726,-0.075532
0.097505,-0.19638,0.018158,-0.08957,0.074617,0.030365,0.019379,-0.11978
0.062409,-0.18814,-0.066682,-0.1677,0.053559,0.062104,0.043183,-0.091707
0.016022,-0.075532,-0.096284,0.11185,0.060578,-0.0022889,0.057221,-0.082246
-0.042878,0.0044251,-0.12863,-0.084688,0.035859,0.030976,0.11246,-0.077363
-0.039826,-0.010224,-0.066377,-0.036469,-0.032197,0.04654,0.0016785,-0.018158
-0.083467,-0.028534,-0.088655,-0.26017,-0.022736,-0.044404,-0.0013733,0.0038148
-0.082246,-0.0062562,-0.03769,-0.051118,-0.018463,0.0062562,0.013275,0.039521
-0.08835,0.19211,-0.1091,-0.19181,-0.036469,0.034028,0.13718,0.069429
-0.10605,0.07248,-0.064851,-0.13931,-0.062104,0.085298,0.43534,0.11704
-0.070039,-0.053559,-0.070649,-0.046235,-0.049287,0.055695,0.36271,0.15122
-0.062104,0.028229,-0.064546,0.027619,0.048371,-0.16709,-0.49149,0.059358
0.0019837,0.037385,-0.040436,-0.082246,0.062409,-0.15854,-1.0835,0.0013733
-0.0010681,0.029145,-0.044099,-0.097505,0.017548,0.066377,0.25437,-0.023346
0.009308,-0.052033,-0.020294,-0.039216,0.0038148,0.04715,0.1857,-0.049287
0.017853,-0.11551,-0.010834,-0.030365,-0.0056458,0.04654,0.053254,0.0016785
0.028229,-0.16678,-0.016022,-0.032807,0.019989,0.036469,0.27604,-0.0080873
-0.0090028,-0.095674,-0.026093,-0.052644,0.067597,0.00076295,0.18143,-0.045014
0.017548,-0.072786,-0.030976,-0.067292,0.067903,0.020294,0.12528,-0.051118
0.015412,-0.082856,-0.066377,-0.058442,0.019074,0.018769,-0.019379,-0.045624
0.005951,-0.14786,-0.049897,-0.087739,0.0077821,0.070649,0.28824,-0.066682
-0.052033,-0.067903,-0.10727,-0.1265,0.0086976,0.041352,-0.28763,-0.087129
-0.088045,0.030671,-0.11063,-0.11917,-0.01297,-0.00076295,-0.58671,0.0016785
-0.093538,0.044099,-0.12497,-0.092317,-0.027314,-0.025177,0.15488,0.066377
-0.082246,0.08835,-0.11765,-0.06424,-0.026398,-0.081331,-0.2208,0.073396
-0.093233,0.055695,-0.079194,-0.064851,-0.011139,-0.082246,-0.053559,0.12528
-0.067597,0.027924,-0.044404,-0.11276,-0.030365,0.0044251,0.19547,0.10819
-0.06363,0.0022889,-0.015412,-0.10636,-0.0383,0.067597,0.33768,0.067292
-0.0206,-0.034638,-0.043793,-0.082856,-0.032807,0.062409,0.31388,0.085603
0.00045777,-0.097505,-0.042267,-0.078279,-0.037079,0.12741,0.34134,0.062104
0.02884,-0.11673,-0.018769,-0.041047,-0.010529,0.079194,0.20096,-0.022431
0.059358,-0.14145,-0.043183,-0.048981,0.032807,-0.059052,-0.52445,-0.083772
0.076753,-0.076448,-0.013886,-0.016022,0.049897,-0.04593,-0.6807,-0.086824
0.065156,-0.077974,-0.014496,-0.019379,0.085603,-0.052338,0.029755,-0.074006
0.005951,-0.039826,-0.032502,-0.06363,0.10941,-0.091402,0.1265,-0.073396
-0.018463,-0.059358,-0.040742,-0.077363,0.066682,0.042878,0.13046,-0.0083925
-0.042573,-0.0028992,-0.070039,-0.087129,0.066682,-0.0090028,-0.18509,-0.014496
-0.08072,0.02945,-0.085298,-0.098726,0.03006,-0.0016785,0.010529,0.020905
-0.12039,0.065766,-0.11246,-0.12253,-0.0010681,0.027008,0.15335,0.019074
-0.11429,0.081941,-0.11765,-0.12802,-0.042573,0.032197,0.056001,0.065461
-0.11582,0.074006,-0.11093,-0.12528,-0.061799,0.050202,0.10208,0.11582
-0.12863,0.027619,-0.092622,-0.16068,-0.055085,0.073091,0.14084,0.10208
-0.041047,-0.19181,0.016327,-0.068818,-0.07187,0.067292,0.084382,0.1915
-0.022126,-0.19974,-0.076753,-0.05539,-0.014496,-0.045319,0.017853,0.080415
-0.020294,-0.0038148,-0.077363,-0.04654,0.044099,-0.1149,0.014191,-0.052644
0.010834,0.002594,-0.024262,-0.025177,-0.017243,0.025483,-0.059968,-0.0068666
0.03006,-0.046235,-0.053864,-0.060578,-0.0086976,0.042573,-0.15824,-0.0096132
0.053559,-0.08957,-0.020905,-0.057221,0.030976,-0.040131,-0.11185,-0.0383
-0.00015259,-0.076753,-0.021515,-0.068208,0.02945,-0.072175,0.08011,-0.068208
0.048981,-0.12253,0.013886,-0.032502,0.015106,0.050507,0.19577,-0.064546
0.039216,-0.0795,-0.024872,-0.032502,0.050202,0.13504,0.075227,-0.042573
0.047761,-0.074922,-0.034333,-0.040742,0.083467,0.027314,-0.043183,-0.083772
0.02182,-0.010834,-0.072786,-0.14359,0.083772,-0.0077821,-0.13779,-0.040436
0.011749,0.0065614,-0.063325,-0.090486,0.032807,0.042878,0.02884,-0.05478
-0.1146,0.029755,-0.084688,-0.0972,0.0013733,-0.045014,0.12711,-0.016327
-0.13016,0.060273,-0.096895,-0.086824,0.0050355,-0.037385,0.50156,0.1268
-0.1033,0.017853,-0.10636,-0.093538,-0.041352,0.0038148,0.30076,0.15915
-0.12467,0.018158,-0.10605,-0.13901,-0.056001,0.033112,0.1268,0.0096132
-0.11398,0.013275,-0.10117,-0.13596,-0.071565,0.0050355,-1.107,0.0096132
-0.10605,0.039521,-0.0795,-0.098726,-0.061494,0.035554,-0.44114,0.13901
-0.098116,-0.013886,-0.017548,-0.084382,-0.02884,0.038605,0.35233,0.065156
-0.03769,-0.049592,-0.062104,-0.026703,-0.037385,0.048981,0.13169,0.068513
-0.0086976,-0.032807,-0.038605,0.03769,-0.041962,0.03006,0.13535,0.069123
0.017853,-0.098116,-0.0062562,0.042573,-0.015717,-0.035859,0.0074769,-0.0071717
0.052949,-0.086519,-0.027924,-0.084688,0.075227,-0.069123,-0.068208,-0.041047
0.06363,-0.11032,-0.034943,-0.12985,0.1915,0.045014,0.15,-0.0383
0.070649,-0.11276,-0.025483,-0.085908,0.1207,0.092622,0.25101,-0.088045
0.061189,-0.10147,-0.016327,-0.063325,-0.011444,-0.023041,-0.043793,-0.10178
0.034028,-0.10178,-0.02884,-0.093538,0.0047303,-0.088655,-0.43473,-0.11002
0.04715,-0.16983,-0.026093,-0.041352,0.0090028,0.002594,-0.2153,-0.065156
0.0090028,-0.06424,-0.05478,-0.002594,0.0038148,0.066682,0.22568,-0.041047
-0.041047,0.067597,-0.10941,-0.087129,0.075532,0.08957,0.20462,-0.03769
-0.069429,0.096284,-0.15488,-0.1384,0.045624,0.070954,0.098116,0.031586
-0.11734,0.065156,-0.13962,-0.1561,-0.016327,-0.044099,0.0013733,0.013275
-0.12741,-0.00076295,-0.046235,-0.14511,-0.037079,-0.066072,-0.29435,0.055695
-0.17685,0.077363,-0.042573,-0.098726,-0.067292,-0.057832,-0.034638,0.11643
-0.18906,0.11643,-0.13687,-0.13199,-0.058442,-0.027314,0.28153,0.16953
-0.076143,0.13748,-0.10117,-0.038605,-0.024262,-0.0056458,-0.034333,0.17166
0.043793,0.064546,0.002594,-0.070954,-0.010529,0.0019837,0.075532,0.10544
0.047456,0.024262,-0.037995,-0.077363,-0.012665,0.012055,0.0016785,0.021515
0.084382,-0.25681,0.016022,-0.044404,-0.015717,0.057527,0.02945,-0.016327
0.092317,-0.47257,0.016632,0.0065614,0.00045777,0.044709,0.087739,-0.055695
0.07248,-0.27481,0.0083925,-0.013275,0.048981,0.018158,0.21988,-0.094453
0.067292,-0.22019,0.031586,-0.030976,0.077974,0.0019837,0.26535,-0.11124
0.057221,-0.1735,0.048981,-0.022736,0.083467,-0.03006,-0.28153,-0.13321
0.019074,0.0038148,-0.064851,0.0056458,0.082246,0.0032044,-0.7744,-0.13535
-0.02884,0.1091,-0.1445,-0.046235,0.045014,0.052644,0.29984,-0.081636
-0.06302,-0.021515,-0.10147,-0.17899,-0.020905,-0.0022889,0.14328,0.0038148
-0.082856,-0.12039,-0.12741,-0.20493,-0.034638,0.005951,-0.16464,-0.00076295
-0.16434,0.18784,-0.12955,-0.099336,0.062409,0.066377,0.2092,0.034943
-0.09781,0.17441,-0.10361,-0.098421,-0.019684,0.11276,0.18875,0.14633
-0.14237,0.16037,-0.12314,-0.21347,-0.056916,-0.10666,-0.40085,0.059968
-0.089876,0.16068,-0.098726,-0.23178,-0.025177,-0.044099,-0.1677,0.058137
-0.078889,0.10117,-0.072786,-0.036469,-0.12619,0.093538,0.2742,0.16892
-0.068208,-0.034333,-0.048371,-0.027619,-0.032807,-0.036469,0.018158,0.11643
-0.002594,-0.15885,-0.042267,-0.02884,0.0086976,0.036774,0.13626,0.13077
0.034028,-0.27024,-0.041047,-0.10941,0.015106,0.012665,0.068513,0.076143
0.023651,-0.16861,-0.0047303,-0.10636,0.050202,-0.039826,0.032197,-0.034943
0.04593,-0.051728,-0.0019837,0.2031,0.030365,0.023957,0.12802,-0.059358
0.025483,-0.074922,-0.0053407,-0.18265,0.068513,-0.016327,-0.029755,-0.10849
0.016632,-0.090791,-0.017853,-0.042267,0.0065614,0.027924,-0.016632,-0.061494
0.019684,-0.064851,-0.005951,-0.037079,0.014801,0.027008,-0.014801,-0.075227
0.034028,-0.081941,-0.053254,-0.039521,0.042878,0.040131,-0.10391,-0.070039
0.033417,-0.048981,-0.087434,-0.072786,0.023957,-0.020905,-0.24369,-0.039521
-0.0053407,-0.028229,-0.061799,-0.078279,0.069734,-0.074617,-0.1503,-0.010529
-0.083467,0.014191,-0.077974,-0.11887,0.029755,0.020905,0.15854,-0.047761
-0.13138,0.076143,-0.11154,-0.11948,-0.02884,0.085298,0.25772,-0.0041199
-0.15824,0.10758,-0.11704,-0.12314,-0.015106,-0.0050355,0.17746,0.10452
-0.14572,0.10239,-0.12833,-0.13077,-0.032197,0.0099184,0.14603,0.16922
-0.10941,0.090486,-0.11276,-0.11337,-0.074922,0.044404,-0.0035096,0.14786
-0.10178,0.061189,-0.095064,-0.099641,-0.067597,0.073701,-0.017548,0.075837
-0.0383,-0.011749,-0.035859,-0.040131,-0.05539,0.044709,-0.014496,0.10697
-0.011444,-0.033417,0.017853,-0.0028992,0.024262,-0.041962,0.02121,0.12375
-0.010529,-0.12894,-0.012055,-0.042267,0.11276,-0.090486,0.16678,-0.023346
0.059968,-0.24552,-0.017853,-0.051728,0.023346,0.08072,0.45548,-0.0096132
0.12314,-0.26413,-0.005951,-0.05478,-0.0090028,0.034943,0.027619,0.03769
0.1268,-0.17624,0.010224,-0.031586,0.052033,-0.029755,-0.26902,-0.062104
0.061494,-0.069429,-0.026703,-0.045319,0.10361,-0.0795,-0.79637,-0.19516
0.049287,0.015717,-0.033722,-0.099336,0.093538,-0.035859,-0.15793,-0.1323
0.026703,-0.032502,-0.043793,-0.028229,0.027008,0.018158,0.015412,-0.12345
-0.061189,0.0053407,-0.094148,-0.13565,0.02121,0.053559,0.025788,-0.10391
-0.025177,-0.052338,-0.082551,-0.07248,-0.030671,0.1146,0.35203,0.00045777
-0.055085,-0.030671,-0.091402,-0.078889,0.025788,-0.094759,0.32212,-0.043793
-0.12802,0.098116,-0.11246,-0.1091,0.061494,-0.13748,-0.26902,-0.061189
-0.17685,0.092622,-0.12741,-0.11978,-0.035554,0.026398,-0.55253,0.17014
-0.14969,0.049287,-0.078584,-0.12375,-0.055085,0.011139,0.027008,0.22202
-0.10636,-0.031891,-0.090486,-0.10788,-0.070954,0.011139,0.20951,0.15213
-0.086213,-0.015412,-0.078584,-0.10117,-0.068818,0.02884,0.062104,0.14054
-0.070649,0.026093,-0.046845,-0.087739,-0.064546,0.049592,0.099641,0.093538
-0.041047,-0.02884,-0.033722,-0.062715,-0.041962,0.048676,0.10636,0.037079
0.025483,-0.090486,-0.0038148,-0.026398,-0.010529,0.030365,0.065156,0.0090028
0.048981,-0.12497,-0.00076295,-0.037385,0.034028,0.032502,0.034333,-0.025177
0.053559,-0.12741,0.0053407,-0.042267,0.056001,0.020294,0.0096132,-0.066987
0.059663,-0.14603,-0.0044251,-0.07126,0.044099,0.02121,-0.0056458,-0.07187
0.059358,-0.1387,-0.0056458,-0.05417,0.044404,0.034943,-0.022736,-0.089876
0.049287,-0.103,-0.045014,-0.035248,0.07187,0.014191,0.10361,-0.11551
0.0032044,-0.040436,-0.092927,-0.14054,0.088655,-0.020294,0.13687,-0.075227
-0.024872,-0.0080873,-0.11276,-0.11368,0.041047,0.0044251,0.11643,-0.025483
-0.030976,0.023651,-0.11429,-0.036774,0.009308,-0.04593,0.018158,-0.0028992
-0.056916,0.049592,-0.037995,-0.00076295,0.0068666,0.016632,0.2797,0.0041199
-0.09781,0.079805,-0.085908,-0.066682,0.005951,0.024872,-0.15824,-0.069123
-0.1091,0.038605,-0.10605,-0.16983,-0.0050355,-0.070344,-0.92515,0.0065614
-0.10819,-0.025483,-0.075837,-0.14786,-0.059663,0.0044251,0.10636,0.11978
-0.091707,0.029145,-0.10056,-0.12528,-0.057221,-0.048066,0.066072,0.057832
-0.034943,0.085603,-0.0795,-0.085603,-0.034333,0.026703,0.33677,0.061494
0.0096132,-0.071565,-0.040436,-0.034638,-0.045624,0.042878,0.27176,0.10239
0.02121,-0.13138,-0.044709,-0.035248,-0.0028992,-0.020294,-0.27665,0.067292
0.045014,-0.05417,-0.010834,0.027924,0.039826,-0.011444,-0.2797,-0.010529
0.06424,-0.040742,0.048066,-0.02945,0.048981,0.043183,0.17655,-0.00045777
0.023041,-0.059663,-0.01236,-0.16098,0.098421,0.018158,0.13901,-0.041352
0.016938,-0.12253,-0.044099,-0.061799,0.057527,0.037079,0.18479,-0.024262
0.00076295,-0.16587,-0.0074769,-0.050507,0.016938,0.052644,0.31235,-0.044404
0.0071717,-0.31907,-0.025788,-0.061799,0.043793,0.0041199,0.0099184,-0.09781
-0.023346,-0.19699,-0.080415,-0.048981,0.025788,-0.066987,-0.61082,-0.092012
-0.069734,0.08011,-0.11551,-0.10117,-0.0083925,-0.063935,-0.46189,-0.00076295
-0.11185,0.15854,-0.12222,-0.084382,-0.029755,0.005951,0.13443,0.094453
-0.11551,0.13016,-0.11429,-0.12741,-0.009308,0.037995,0.31205,0.15854
-0.11917,0.086519,-0.12314,-0.14511,0.0010681,0.099641,0.32761,0.15915
-0.095979,0.059968,-0.065766,-0.10849,-0.043793,0.06424,0.12284,0.13901
-0.10178,0.030671,-0.07187,-0.099336,-0.068513,0.037385,0.034333,0.068513
-0.10147,0.056611,-0.11215,-0.098421,-0.029755,-0.025788,0.067292,0.041657
-0.041047,0.0019837,-0.064546,-0.062715,-0.028534,-0.069123,0.17319,0.10178
0.00045777,-0.022431,-0.048066,-0.053254,-0.040436,0.052338,-0.045014,0.038911
0.02945,-0.076753,-0.023957,-0.030976,-0.0047303,0.033112,-0.2681,-0.057221
0.067903,-0.1384,0.0016785,-0.11154,0.019074,0.002594,-0.062715,-0.072175
0.062409,-0.18387,0.070344,-0.14481,0.043488,0.026093,0.25162,-0.079194
0.094759,-0.19211,-0.0090028,-0.015412,0.05539,-0.013581,-0.0083925,-0.072175
0.033417,-0.10361,-0.0383,0.038605,0.10025,-0.094759,-0.52842,-0.11337
0.005951,-0.067903,-0.048676,-0.059052,0.13413,0.022126,-0.18204,-0.10788
-0.0035096,-0.0383,-0.056611,-0.038911,0.077974,0.083467,0.24643,-0.018463
0.01297,-0.064851,-0.041962,0.0074769,0.01297,0.011444,0.0032044,-0.027314
-0.042573,-0.0038148,-0.075227,-0.099031,0.025483,-0.0383,0.00076295,-0.073091
-0.072786,0.039826,-0.12284,-0.15549,0.014191,0.0077821,0.13901,-0.053559
-0.069429,0.033722,-0.11551,-0.099336,-0.051118,0.037385,0.16831,0.013275
-0.053864,0.040436,-0.10544,-0.095674,-0.071565,0.0047303,0.076753,0.045319
-0.092012,0.056306,-0.088045,-0.10178,-0.042573,0.023346,-0.035859,0.031586
-0.069734,0.025483,-0.08957,-0.13535,-0.027314,0.042573,0.075227,0.14542
-0.090181,0.026093,-0.078279,-0.11643,-0.016938,-0.04654,0.069123,0.14694
-0.047761,-0.026093,-0.050202,-0.095674,-0.022736,-0.10666,0.26352,0.15335
-0.078889,-0.042267,-0.026093,-0.06363,-0.043488,0.027008,0.32822,0.1146
-0.05539,-0.034943,-0.028534,-0.02884,-0.046845,0.12924,-0.29374,0.027314
0.0056458,-0.066377,-0.013581,0.075532,-0.0068666,0.046845,-1.0838,-0.025788
-0.0050355,-0.042573,-0.018463,-0.0050355,0.073701,0.067597,0.3682,-0.024262
0.025788,-0.10636,-0.027619,-0.20432,0.13199,-0.015717,0.26749,-0.056916
0.039521,-0.18082,-0.046845,-0.12711,0.098421,-0.056306,-0.093843,-0.052644
0.018769,-0.20829,-0.042267,-0.10269,0.024872,0.042267,0.13077,-0.022736
-0.0019837,-0.15152,-0.022126,0.092927,0.023041,0.027008,0.053864,-0.017548
-0.022431,-0.035554,-0.073396,-0.033722,0.052949,-0.072175,-0.02945,-0.041657
-0.081636,0.075532,-0.08835,-0.25956,0.018769,0.013886,-0.0050355,0.0047303
-0.085603,0.13016,-0.092927,-0.14206,-0.077974,0.075532,0.099031,0.075227
-0.092012,0.091402,-0.072175,-0.18112,-0.049592,0.015106,0.215,0.031891
-0.0206,0.0972,-0.10025,0.262,-0.059968,0.11307,0.37247,0.049592
-0.048981,0.10178,-0.10849,-0.22568,-0.0028992,-0.028229,-0.15244,-0.092317
-0.051423,-0.034333,-0.10056,-0.14725,-0.040742,-0.087129,-0.47684,0.0068666
-0.053864,-0.024872,-0.081025,-0.041047,-0.073091,0.051423,0.27878,0.11826
0.019989,-0.21622,0.034028,-0.078889,0.074617,-0.041962,0.26993,0.13718
-0.015717,-0.14542,-0.056306,-0.13596,0.015717,-0.028229,-0.13443,0.014191
-0.038605,0.0056458,-0.040742,-0.070344,-0.011139,-0.018769,-0.34287,0.015106
0.022126,-0.099641,-0.019989,-0.067597,0.036164,-0.041962,-0.3679,0.026703
0.04654,-0.16281,0.005951,-0.0090028,0.042878,0.002594,0.17624,-0.073396
0.045624,-0.13382,-0.010834,-0.038605,0.064546,0.060883,0.11582,-0.060883
0.037385,-0.14145,-0.017853,-0.06363,0.069734,0.073091,0.054475,-0.086213
0.023651,-0.082551,-0.070649,-0.042573,0.034943,0.05539,0.096895,-0.13565
0.011749,-0.042267,-0.018463,-0.036164,0.026703,0.034638,0.019684,-0.10727
-0.040742,-0.035554,-0.081331,-0.066987,0.0383,-0.055695,-0.12161,-0.074006
-0.10056,0.040131,-0.1268,-0.13321,0.029145,-0.059663,0.11795,-0.0065614
-0.099641,0.08957,-0.11246,-0.12558,-0.02121,0.054475,0.47013,0.094759
-0.096284,0.098421,-0.11826,-0.083467,-0.052949,0.041352,0.31235,0.16312
-0.10208,0.081941,-0.096284,-0.08957,-0.036774,-0.045624,-0.35294,0.04593
-0.089265,0.076753,-0.094453,-0.10483,-0.023041,-0.060578,-0.8687,-0.049897
-0.068818,0.10971,-0.095064,-0.13046,-0.038605,0.046845,0.13626,0.0383
-0.039216,0.034638,-0.061189,-0.069429,-0.021515,0.036164,0.27329,0.02121
0.0071717,-0.019684,-0.03006,-0.045624,0.00076295,0.035248,0.23362,0.13321
0.037995,-0.103,-0.005951,-0.051118,0.027619,-0.011444,0.077974,0.08011
0.014191,-0.14054,-0.0035096,-0.041352,0.02182,-0.017243,-0.29282,-0.0022889
0.015412,-0.15976,-0.0080873,-0.019379,0.029755,-0.0041199,-0.071565,0.047761
0.018769,-0.14267,0.013275,-0.02945,0.047761,-0.048371,0.041657,-0.0071717
0.041352,-0.26963,0.010529,-0.046845,0.049897,0.024872,0.053254,-0.068818
0.013275,-0.13413,-0.062409,-0.15549,0.05417,0.11185,0.25925,-0.08072
-0.037079,0.050202,-0.067903,0.02121,0.047761,0.084688,0.41459,-0.07126
-0.019379,-0.085908,-0.089265,-0.12528,-0.010529,0.01236,0.036164,-0.029145
-0.027314,-0.01236,-0.13291,-0.13474,0.027619,-0.16648,-0.7158,-0.044404
-0.073396,0.092012,-0.103,-0.077058,0.011139,-0.02182,-0.3331,-0.00015259
-0.041352,0.0086976,-0.088655,-0.041657,-0.0096132,0.10513,0.34531,0.11856
-0.04654,0.017853,0.0071717,-0.099947,0.010529,-0.0035096,0.08011,0.096895
-0.068208,-0.058137,-0.065766,-0.10575,0.0074769,0.016632,0.074617,0.065461
-0.10422,0.067903,-0.15244,-0.14054,-0.020905,0.024872,0.050202,0.094453
-0.081331,0.027924,-0.082856,-0.12345,-0.055085,-0.0016785,0.044099,0.11826
-0.074617,0.0038148,-0.044709,-0.06363,-0.050813,0.012665,0.0065614,0.075227
-0.034638,-0.011749,-0.029145,-0.029145,-0.018769,0.056306,0.11246,0.025788
0.00076295,-0.075532,-0.024262,0.0056458,0.0096132,0.01236,0.06363,-0.0062562
0.04654,-0.12833,0.016632,-0.010834,0.005951,0.052338,0.092317,-0.023041
0.035859,-0.11154,-0.022431,-0.081331,0.041962,0.030671,0.091402,-0.062104
0.059968,-0.099641,-0.023041,-0.1088,0.061494,-0.01297,0.03006,-0.065766
0.0068666,-0.068513,-0.032807,-0.061799,0.090791,-0.093233,-0.34379,-0.1207
-0.022431,-0.066377,-0.051728,-0.087129,0.085298,0.005951,-0.23331,-0.070954
-0.033722,-0.041352,-0.07126,-0.066682,0.0074769,0.10452,0.2089,-0.013275
-0.014496,-0.030976,-0.069429,-0.074922,-0.0068666,0.044404,-0.030671,-0.015717
-0.051118,0.026398,-0.11063,-0.10758,-0.0028992,-0.0099184,-0.18418,-0.040436
-0.095064,0.060578,-0.11124,-0.11246,0.0071717,-0.031281,0.16892,-0.012055
-0.12863,0.076143,-0.078279,-0.10056,-0.012055,0.0065614,0.48966,0.069734
-0.14023,0.083162,-0.11948,-0.14481,-0.048371,-0.0071717,0.43473,0.1326
-0.12253,0.060578,-0.10941,-0.13443,-0.065461,0.013275,-0.29679,0.12406
-0.086824,0.023957,-0.090791,-0.085603,-0.055695,0.023041,-0.822,0.10483
-0.032502,-0.019684,-0.035859,-0.075532,-0.05539,0.069429,0.23148,0.11978
0.017853,-0.10666,-0.0019837,-0.026093,0.005951,0.011444,0.12711,0.032807
0.048371,-0.12253,-0.027619,0.03006,0.059358,-0.045319,-0.02945,-0.037385
0.064546,-0.059968,-0.033112,0.002594,0.044099,-0.011749,0.0035096,-0.077974
0.059968,-0.10422,-0.026398,-0.096284,0.054475,-0.035554,-0.073091,-0.11032
0.062409,-0.13626,-0.012055,-0.12497,0.031281,0.002594,-0.076753,-0.076753
0.035554,-0.11002,-0.020294,-0.0206,0.026703,0.040131,0.053864,-0.057832
0.025788,-0.1735,0.0038148,0.019379,0.074006,-0.12772,0.014801,-0.10422
0.043183,-0.23819,0.02182,-0.055085,0.046235,-0.030976,0.07248,-0.025483
-0.030671,-0.07248,-0.087434,-0.11398,0.06363,0.08896,0.075837,-0.043183
-0.061494,0.069734,-0.12558,-0.14084,0.06424,0.028229,0.051728,-0.011444
-0.085298,0.090486,-0.09659,-0.10513,0.039521,0.071565,0.24094,0.093843
-0.091402,0.053864,-0.08896,-0.11978,0.0068666,0.044404,0.20401,0.089876
-0.0795,-0.019379,-0.10025,-0.11887,-0.06363,0.030976,-0.047456,0.11643
-0.10422,0.03006,-0.099641,-0.11978,-0.085603,0.066377,-0.18051,0.055085
-0.078889,0.090486,-0.072786,-0.11673,-0.073091,0.00045777,-0.030671,0.031281
-0.045624,-0.030365,-0.026703,-0.052644,-0.04654,-0.06302,0.074617,0.072175
-0.024567,-0.033722,-0.069429,-0.023346,-0.0019837,-0.075532,-0.045014,0.13199
-0.081025,0.095369,-0.076143,-0.091402,0.013275,0.010834,0.14115,0.10788
-0.041962,-0.032502,-0.040742,-0.075837,-0.0050355,0.027008,0.17746,0.11765
0.0019837,-0.14542,-0.028534,-0.056306,-0.0041199,0.0080873,-0.35233,0.02182
0.0035096,-0.13413,-0.029145,-0.046845,0.024872,0.037079,-0.19303,-0.092927
0.043183,-0.14481,0.041962,-0.065766,0.034333,0.073396,0.37217,-0.060578
0.082246,-0.14237,-0.028229,-0.045319,0.055695,0.022736,0.34287,-0.035248
0.066682,-0.00076295,-0.061799,-0.029145,0.088045,-0.039216,0.013886,-0.11368
0.002594,0.032502,-0.074922,-0.054475,0.078279,-0.052033,-0.89158,-0.18784
-0.010834,-0.010834,-0.031891,-0.06363,0.051423,-0.0062562,-0.15152,-0.078279
-0.024567,-0.18173,-0.065766,-0.083772,0.022126,0.031281,0.28519,-0.035554
-0.0383,-0.08957,-0.11032,-0.11398,-0.00015259,0.020905,-0.067597,-0.0206
-0.049287,0.068208,-0.11093,-0.16495,-0.015106,0.00076295,0.043183,-0.030976
-0.093233,0.098421,-0.11734,-0.15091,-0.048371,0.034028,0.079194,0.011139
-0.14786,0.11002,-0.084077,-0.095674,-0.062715,0.028534,0.010529,0.067292
-0.14572,-0.0019837,-0.11154,-0.09659,-0.043488,-0.041047,0.069734,0.15122
-0.13413,0.011139,-0.04593,-0.033112,-0.023346,-0.065766,0.086824,0.12284
-0.059663,0.013886,-0.068818,-0.080415,-0.017243,0.016022,0.15518,0.091402
-0.0010681,-0.071565,0.048981,0.1976,0.022736,0.048676,0.13809,-0.017243
0.0047303,-0.048371,0.032197,-0.12528,0.046235,0.037385,0.043488,-0.084993
0.024262,0.020294,-0.085298,-0.20981,0.027008,0.011444,-0.17441,-0.020294
0.053559,-0.059358,-0.046845,-0.045624,0.0047303,-0.011139,-0.18021,0.079805
0.049592,-0.14298,-0.039826,-0.042878,-0.00076295,0.084993,0.31601,0.11978
0.026093,-0.16556,-0.018769,-0.032807,-0.0035096,0.071565,0.33249,0.091707
-0.0086976,-0.16434,-0.024872,-0.082856,0.062409,0.043183,0.16648,0.083772
-0.035248,-0.13046,-0.050813,-0.15122,0.12863,0.041657,-0.11765,-0.026703
-0.024567,-0.081331,-0.036469,-0.06302,0.031891,-0.018769,-0.38071,-0.015717
-0.049592,-0.0044251,-0.10605,-0.045014,-0.0047303,-0.023041,-0.1857,-0.018463
-0.057221,0.082551,-0.12558,-0.092927,-0.0080873,0.072786,0.30045,-0.018463
-0.045014,0.087739,-0.076448,-0.10056,-0.031281,0.064851,0.36118,-0.018463
-0.060883,-0.0019837,-0.099336,-0.15091,-0.031281,-0.06302,0.023041,-0.02121
-0.08896,0.07248,-0.11154,-0.19333,-0.014496,-0.14084,-0.48325,-0.0206
-0.11429,0.082551,-0.094148,0.26963,-0.029145,-0.027924,-0.21653,0.00076295
-0.043793,-0.005951,-0.062409,-0.25376,-0.041047,0.0038148,0.29435,0.11063
-0.015106,-0.022736,-0.023651,-0.22507,-0.082856,-0.067597,-0.15213,0.095674
-0.022126,-0.030671,-0.013581,-0.020294,-0.015106,0.032502,0.079194,-0.0056458
0.029755,-0.11643,0.023957,-0.026398,0.11765,0.08835,0.47318,-0.010224
0.094759,-0.17288,0.0022889,-0.02945,0.12955,0.022736,-0.041352,-0.01297
0.083467,-0.11215,-0.052949,-0.056916,0.071565,-0.10483,-1.0051,-0.16373
0.052033,-0.12558,-0.042573,0.05417,0.08072,-0.011139,-0.17899,-0.10727
0.10208,-0.15427,-0.02182,-0.074311,0.018158,0.099947,0.33677,-0.064546
0.065156,-0.10544,-0.022126,-0.074617,0.037385,-0.0056458,0.0047303,-0.11429
-0.023346,-0.02884,-0.098421,-0.11978,-0.0050355,-0.0068666,0.043183,-0.13626
-0.057832,0.10513,-0.12619,-0.1207,-0.030365,0.051423,0.045319,0.0016785
-0.099031,0.042573,-0.069429,-0.13748,-0.017243,0.049287,-0.053254,0.019074
-0.14267,0.091707,-0.087434,-0.078279,-0.020905,-0.017243,0.16922,0.10239
-0.19699,0.19455,-0.11368,-0.11093,0.034333,-0.022126,0.54643,0.22751
-0.18296,0.15549,-0.08835,-0.091402,0.014191,-0.023041,0.081636,0.22751
-0.11032,0.022736,-0.046235,-0.043183,-0.099947,0.042267,-0.097505,0.21073
-0.063325,-0.25986,-0.049897,-0.085908,-0.05539,0.039216,0.031586,0.10483
-0.044709,-0.14939,-0.099641,-0.10575,-0.034943,0.089876,0.045319,0.015717
-0.016632,-0.018158,-0.065766,-0.08896,-0.022126,0.049287,0.20584,0.084077
0.0086976,-0.065766,-0.0016785,-0.050813,0.055085,-0.018158,0.12284,0.022126
0.033722,-0.10269,0.010224,-0.016632,0.029755,-0.0016785,-0.41459,-0.087129
0.02884,-0.10697,-0.018158,-0.011139,-0.0083925,0.041352,-0.07126,-0.11612
0.037079,-0.099947,-0.022736,-0.0010681,0.016938,-0.0050355,0.09659,-0.11643
0.045014,-0.13382,-0.002594,-0.019074,0.038911,-0.017853,-0.1146,-0.11734
0.016632,-0.13687,-0.010834,-0.025483,0.076143,0.0041199,0.030365,-0.071565
-0.0013733,-0.070344,-0.03769,-0.035248,0.076448,0.036469,0.038911,-0.0068666
-0.0086976,-0.012055,-0.075837,-0.21012,0.056916,0.020905,0.076753,0.035859
-0.014801,0.03006,-0.11368,-0.23117,0.032197,-0.016327,0.025177,0.045319
-0.069734,0.091096,-0.11276,-0.069123,-0.0083925,-0.013275,-0.0028992,0.042878
-0.088045,0.093843,-0.13291,-0.086519,-0.024262,0.036469,0.039216,0.069734
-0.075227,0.082551,-0.099641,-0.10086,-0.052644,0.061494,0.11765,0.13382
-0.044404,0.0065614,-0.095369,-0.088655,-0.063325,0.068208,0.30686,0.15488
-0.052033,0.061494,-0.11643,-0.090486,-0.04715,0.023346,0.49973,0.043793
-0.070039,0.041962,-0.068208,-0.083772,0.0028992,-0.09781,-0.11124,-0.086213
-0.045624,-0.052644,-0.030976,-0.085298,0.016632,-0.10483,-0.88334,-0.14267
0.012055,-0.12467,-0.023957,-0.052949,-0.0053407,0.0206,-0.47532,-0.022736
0.017853,-0.14572,0.013275,-0.039216,-0.0041199,-0.017853,-0.11734,0.0074769
0.068513,-0.23056,0.019684,-0.035554,0.017243,0.0206,0.31022,0.019074
0.048066,-0.28763,-0.03769,-0.034943,0.061799,-0.016327,0.046235,0.010834
0.02945,-0.12284,-0.048371,-0.079194,0.086519,0.0099184,0.031891,-0.038605
0.030365,-0.038911,-0.02182,-0.091096,0.058442,0.049592,0.090181,-0.024872
0.014801,-0.039826,0.00076295,-0.017243,0.068513,0.011444,0.013886,-0.076753
-0.01297,-0.025483,-0.052644,-0.047456,0.066682,-0.0032044,0.0050355,-0.073091
-0.041352,0.07248,-0.092622,-0.070649,0.035859,0.0090028,0.034333,-0.045014
-0.11307,0.21347,-0.12436,-0.10666,0.019989,0.0041199,0.025788,-0.033112
-0.14633,0.10971,-0.11337,-0.099641,-0.02121,0.013886,-0.069123,-0.00045777
-0.16251,0.033112,-0.090181,-0.1091,-0.029755,0.057221,-0.0032044,0.090486
-0.15671,0.039521,-0.11032,-0.15579,-0.049897,0.10483,0.21592,0.15091
-0.11826,0.042267,-0.094453,-0.13077,-0.076753,0.094453,0.48936,0.14939
-0.084077,0.0206,-0.10605,-0.07126,-0.08011,0.032807,0.41367,0.15244
-0.053559,-0.0383,-0.064546,-0.1091,-0.073091,-0.016938,-0.24979,0.13718
-0.01297,-0.073701,-0.044709,-0.10666,-0.065156,0.012055,-0.6215,0.079805
0.031281,-0.12741,0.019989,-0.05539,-0.0019837,0.0050355,-0.099641,0.073701
0.084382,-0.1738,0.059052,-0.018158,0.099641,-0.018158,0.11978,0.011139
0.066072,-0.15091,-0.039826,-0.044404,0.094453,-0.049897,0.11978,-0.074922
0.049287,-0.11551,-0.032197,-0.050813,0.036774,0.06302,0.22751,-0.079805
0.054475,-0.10086,-0.02884,-0.027314,0.041657,0.052644,0.14847,-0.11429
0.043488,-0.088655,-0.034028,-0.025483,0.058137,-0.057221,-0.0383,-0.13413
0.033112,-0.048676,-0.057221,-0.048981,0.06302,-0.075227,-0.085298,-0.14023
0.0038148,-0.030671,-0.072175,-0.058747,0.061189,-0.017853,0.095979,-0.057832
-0.040436,-0.0068666,-0.08957,-0.093233,0.032197,-0.037079,-0.35966,-0.032807
-0.10117,0.031891,-0.11124,-0.10666,-0.002594,-0.0022889,-0.73106,-0.037385
-0.11002,0.060273,-0.092012,-0.11856,-0.039826,0.05539,0.35264,0.079194
-0.11215,0.11673,-0.039826,-0.13138,-0.04593,0.005951,0.12833,0.15396
-0.09781,0.066377,-0.073396,-0.10391,-0.038911,-0.024872,-0.26291,0.11185
-0.095979,0.0083925,-0.1268,-0.19394,-0.045624,0.023957,-0.0090028,0.070344
-0.039826,-0.026093,-0.085298,0.27756,-0.051118,0.024262,0.25742,0.098726
-0.002594,-0.052949,-0.042573,-0.28824,-0.00015259,-0.0022889,0.20096,0.067597
0.024872,-0.10636,-0.034028,-0.12558,-0.0019837,0.028534,0.10849,0.046845
0.071565,-0.19059,-0.038911,0.0056458,-0.019684,0.0383,0.015412,0.013886
0.027619,-0.084077,0.017548,-0.0032044,0.043793,-0.026093,-0.097505,-0.033722
0.0028992,-0.11246,0.0038148,-0.05478,0.063325,-0.023957,0.058442,-0.026398
-0.028534,-0.013581,-0.026398,-0.041047,0.039521,0.034943,0.1854,-0.049287
0.0016785,-0.058137,-0.048066,-0.060578,0.047761,0.069734,0.10666,0.012665
0.039826,-0.10971,-0.012055,-0.040742,0.11612,0.029145,0.0032044,0.00076295
-0.023041,0.010529,-0.078584,-0.063325,0.086824,-0.0086976,-0.00015259,-0.077058
-0.016327,-0.01297,-0.066987,-0.10391,0.019379,0.051118,0.067292,-0.072786
-0.062715,-0.086824,-0.052949,-0.1268,-0.0041199,0.062715,0.12711,-0.031281
-0.094148,0.0038148,-0.11093,-0.11063,-0.027314,0.031281,0.013275,-0.0019837
-0.085603,0.0053407,-0.1326,-0.091096,-0.051728,-0.011444,-0.19883,0.063325
-0.087129,0.032197,-0.11521,-0.10513,-0.017243,-0.061494,-0.075837,0.06424
-0.10208,0.092622,-0.10636,-0.11734,-0.024872,-0.0028992,0.082246,0.086519
-0.073091,0.067292,-0.090486,-0.16617,-0.039216,-0.053864,-0.38285,0.14481
-0.050813,0.014496,-0.059358,-0.19211,-0.044404,0.034943,0.16281,0.07187
-0.016327,-0.035859,-0.033722,0.22599,-0.061799,0.084688,0.23636,0.0028992
0.0016785,-0.041657,-0.03006,-0.19425,-0.016327,-0.013275,-0.17716,-0.015106
0.06363,-0.15824,-0.0056458,-0.051118,-0.061799,-0.005951,-0.079194,0.026703
0.065461,-0.17899,-0.0016785,-0.055085,0.02884,-0.070039,0.044404,-0.0074769
-0.024567,-0.070649,-0.041657,-0.10239,0.23301,-0.13596,0.121,-0.062715
-0.0086976,0.013886,-0.037995,-0.049592,0.071565,0.1088,0.23423,0.0013733
0.012055,-0.018769,0.010224,0.010834,-0.028534,0.14511,0.056306,-0.010529
-0.0035096,-0.08835,0.00045777,-0.027008,0.048371,0.00076295,-0.084077,-0.11002
-0.040742,-0.082856,-0.012665,-0.060578,0.062104,0.035554,0.36698,-0.037385
-0.0074769,-0.23697,-0.034333,-0.022431,-0.014191,0.043488,0.52079,-0.0090028
-0.018463,-0.13138,-0.08957,-0.11246,0.015106,-0.052033,-0.40543,-0.073701
-0.034333,0.095979,-0.13687,-0.12161,0.02182,-0.04593,-0.70207,-0.070649
-0.081331,0.14511,-0.15518,-0.11704,0.0065614,-0.017548,-0.1738,0.036774
-0.1091,0.14572,-0.13779,-0.10849,0.03769,-0.048981,-0.041352,0.088655
-0.12009,0.10605,-0.096895,-0.11704,-0.034638,0.055695,0.24369,0.17441
-0.086824,0.060578,-0.094148,-0.039216,-0.072786,0.070649,-0.015412,0.14786
-0.040742,-0.02945,-0.056611,-0.052644,-0.049287,0.030365,0.099031,0.10697
0.010834,-0.10788,-0.041657,-0.21469,-0.031586,0.018463,0.083772,0.11398
0.028229,-0.10605,-0.029755,-0.093843,0.01297,-0.026093,-0.065156,0.024872
0.05417,-0.13962,-0.00045777,-0.019684,0.017548,0.0083925,0.019379,-0.033417
0.055085,-0.15061,-0.0086976,-0.022431,0.032807,0.029145,0.041657,-0.042878
0.027008,-0.11673,-0.0038148,-0.036469,0.072175,0.009308,0.014191,-0.12009
0.019379,-0.083772,-0.028534,-0.02945,0.054475,-0.0090028,0.047456,-0.12314
0.018769,-0.1268,-0.015717,-0.082551,0.009308,0.040742,0.24002,-0.13596
-0.0035096,-0.077363,-0.042267,-0.064851,0.0065614,0.077363,0.23789,-0.12253
-0.069734,-0.028229,-0.066072,-0.083162,0.084077,-0.027619,-0.24979,-0.037079
-0.10727,0.027924,-0.085298,-0.10086,0.10269,-0.086519,-0.62852,0.023651
-0.11551,0.041962,-0.095369,-0.11154,-0.015412,0.070954,0.30655,0.10849
-0.1445,0.13809,-0.11734,-0.10697,-0.043488,0.037385,0.72404,0.15396
-0.11398,0.18631,-0.14572,-0.094453,-0.023041,-0.0022889,0.051423,0.19883
-0.12375,0.067292,-0.103,-0.089265,-0.043793,-0.029755,-0.95598,0.085603
-0.087739,-0.01297,-0.060883,-0.098421,-0.067903,0.043183,0.029755,0.13107
-0.041047,0.013581,-0.0099184,-0.055085,-0.042573,0.078889,0.44388,0.079805
-0.0056458,-0.045624,-0.059358,-0.1091,-0.012665,0.0010681,0.094759,0.013581
0.025483,-0.071565,-0.072786,-0.12284,0.032197,-0.049592,-0.28305,-0.025483
0.086519,-0.11948,0.016327,-0.030671,0.04593,0.0013733,-0.065156,-0.055085
0.097505,-0.13138,-0.022126,-0.014496,0.033722,0.00076295,0.11582,-0.039521
0.13687,-0.16953,-0.026703,-0.015106,0.043183,-0.016022,-0.056611,-0.034333
0.091402,-0.18601,0.037995,-0.026093,0.049287,-0.00076295,-0.041047,-0.10697
0.049287,-0.17502,-0.028229,-0.032197,0.052949,0.013275,0.02182,-0.058747
0.023041,-0.12863,-0.06302,-0.059663,0.048371,0.036164,0.10971,-0.022431
-0.061494,-0.025483,-0.078279,-0.077363,0.02945,0.044404,0.10788,-0.1326
-0.067292,-0.027924,-0.056001,-0.084382,0.0086976,0.0383,0.015106,-0.081331
-0.08011,0.0080873,-0.053254,-0.063325,-0.0071717,0.020294,-0.049287,-0.0068666
-0.08835,0.052644,-0.11887,-0.09659,0.02182,-0.053559,-0.027008,-0.019074
-0.12833,0.09659,-0.11704,-0.11795,0.033722,-0.024872,0.02945,0.039826
-0.094453,0.14267,-0.1088,-0.11337,-0.061799,0.086824,0.12711,0.13718
-0.095064,0.10056,-0.13138,-0.1146,-0.064546,0.030365,0.022126,0.12467
-0.049287,0.0053407,-0.11856,-0.10941,-0.031281,-0.009308,-0.031891,0.08072
-0.041657,-0.0019837,-0.084077,-0.10147,-0.034943,-0.030365,-0.020905,0.062104
-0.015717,-0.024872,-0.045014,-0.084382,-0.042573,0.0086976,-0.0068666,0.083467
-0.025788,0.034028,-0.053254,-0.096284,-0.010224,0.055085,0.075227,0.079805
0.020294,-0.1442,0.059968,-0.058442,0.0013733,0.048981,0.051728,0.027924
0.052949,-0.35813,0.11887,0.016938,0.041352,-0.033722,-0.042573,-0.051728
0.052949,-0.27817,0.00045777,-0.012665,0.092317,-0.005951,0.062409,-0.060578
0.011444,-0.073396,-0.048371,-0.044404,0.076143,0.060578,0.25101,-0.070039
-0.024567,-0.058137,-0.058747,-0.0083925,0.046235,0.040131,0.13718,-0.077363
-0.019379,-0.1384,-0.045624,-0.045624,0.05539,-0.026093,-0.21653,-0.019684
-0.043488,-0.014801,-0.086824,-0.092927,0.065461,-0.057527,-0.49088,-0.033112
-0.087129,0.13352,-0.1146,-0.067292,0.0071717,0.074922,-0.08072,-0.05539
-0.078889,0.099947,-0.099336,-0.10269,-0.0090028,0.034028,0.20035,0.052949
-0.033112,-0.031891,-0.079194,-0.17105,-0.056611,-0.019989,0.070344,0.1265
-0.065461,0.095674,-0.099336,-0.086824,-0.047456,-0.044404,0.20066,0.037079
-0.078889,0.17777,-0.12436,-0.017548,0.013581,0.037385,0.045014,0.065766
-0.055695,0.14328,-0.1146,-0.21897,0.041962,-0.025788,-0.10575,0.12619
-0.095979,0.024262,-0.092927,-0.14603,-0.0090028,-0.070344,0.068208,0.041657
-0.10056,0.011444,-0.059968,-0.10849,-0.054475,-0.00076295,-0.077058,0.060273
-0.071565,-0.026093,-0.034943,-0.055085,-0.059358,0.024567,-0.1503,0.079194
-0.013275,-0.084688,-0.0096132,-0.048981,-0.034943,0.052949,0.23148,0.065766
0.059663,-0.27543,0.065766,-0.031586,-0.019684,0.031281,-0.053254,0.023041
0.077668,-0.36759,-0.00076295,-0.030365,-0.013581,0.043488,-0.037385,-0.035554
0.087434,-0.14176,-0.0016785,0.0080873,0.023041,0.038911,0.26383,-0.066987
0.084688,-0.042573,-0.053864,-0.014191,0.084382,0.014191,0.39872,-0.042573
0.080415,-0.10849,0.0083925,-0.030671,0.12161,-0.053864,-0.056611,-0.13565
0.0077821,-0.076753,-0.015412,-0.068208,0.088655,-0.02182,-0.87083,-0.16617
-0.061189,0.038605,-0.096895,-0.103,0.051423,0.046235,0.082246,-0.051728
-0.059052,0.036469,-0.094453,-0.091707,0.0080873,0.014191,0.215,0.024262
-0.053254,0.026398,-0.103,-0.08957,0.018769,-0.056611,-0.098116,0.040131
-0.084382,0.059663,-0.12833,-0.10697,0.073396,-0.082551,-0.061189,-0.0062562
-0.13321,0.08835,-0.12985,-0.13352,-0.0053407,0.0062562,-0.081941,-0.014191
-0.11856,0.050202,-0.10819,-0.17075,-0.096284,0.10758,0.24735,0.055695
-0.052644,-0.0022889,-0.079194,-0.16526,-0.083162,0.027008,0.029755,0.068208
-0.029755,0.012665,-0.07248,0.21195,-0.049897,-0.0056458,-0.051728,0.0383
-0.033112,0.0013733,-0.058137,-0.21958,-0.034638,0.066682,0.533,-0.0041199
-0.048981,-0.041352,-0.029145,-0.075227,-0.058442,0.086824,0.65904,0.026093
0.018769,-0.12375,-0.014801,0.009308,-0.00015259,-0.070649,-0.0068666,0.056611
0.048066,-0.15793,0.0035096,-0.088655,0.050507,-0.10086,-1.0204,-0.017548
0.032197,-0.14603,0.009308,-0.16373,0.054475,0.023957,-0.82933,-0.0096132
0.10544,-0.15427,0.0013733,-0.010834,0.049897,0.093233,0.36332,0.12436
0.073701,-0.058442,-0.025483,0.023651,0.061799,0.066682,0.32029,-0.070649
0.002594,-0.04654,-0.043183,-0.02945,0.095979,-0.030365,0.088045,-0.16434
-0.041047,-0.015717,-0.084688,-0.061494,0.08835,-0.04715,-0.25864,-0.07126
-0.11368,0.03006,-0.083162,-0.099641,0.06302,-0.09659,-0.24338,-0.0083925
-0.11185,0.013581,-0.092622,-0.11856,-0.002594,-0.062104,0.14389,0.096895
-0.14023,0.049287,-0.061189,-0.15122,-0.031281,0.074311,0.33127,0.13046
-0.12955,0.028534,-0.10727,-0.13962,-0.04654,0.076753,0.21653,0.17258
-0.14054,0.036164,-0.1268,-0.13901,-0.052949,0.061189,0.063325,0.11246
-0.14817,0.037079,-0.10361,-0.11337,-0.055085,-0.0028992,-0.053254,0.022736
-0.10971,0.043183,-0.094453,-0.10117,-0.082856,0.042267,0.088655,0.14939
-0.032807,-0.0065614,-0.077363,-0.045014,-0.070649,0.047456,0.069429,0.07126
0.052949,-0.058137,-0.041962,0.0056458,-0.030671,-0.012055,-0.077058,-0.033112
0.034333,-0.0047303,-0.034943,-0.044709,0.035859,-0.077974,-0.14572,-0.058137
0.031891,-0.086213,0.027924,-0.051728,0.024872,0.05417,0.041352,-0.074006
0.063325,-0.12955,0.011444,-0.13596,0.02884,0.092622,0.17014,-0.03769
0.081941,-0.097505,-0.01297,0.19394,0.092622,-0.033112,-0.037385,-0.025788
0.077974,0.0065614,-0.034028,-0.13291,0.11307,-0.062104,-0.018769,-0.041047
0.081331,-0.17014,-0.0099184,-0.099947,0.10483,-0.049897,-0.012055,-0.051118
0.057221,-0.2327,-0.052644,-0.041352,0.0047303,0.066987,0.040131,-0.06363
-0.019684,-0.12833,-0.036774,-0.073396,0.049592,0.017243,-0.009308,-0.07187
-0.0096132,-0.18051,-0.068208,-0.078584,0.014191,0.0022889,-0.034333,-0.043488
-0.048676,-0.043793,-0.08957,-0.093538,-0.00045777,0.014191,0.026093,-0.0074769
-0.092012,0.094148,-0.11246,-0.089876,-0.023041,0.033112,0.023651,-0.032502
-0.10452,0.16922,-0.17197,-0.12558,-0.058747,0.051423,0.040436,0.046845
-0.098421,0.098421,-0.11368,-0.16922,-0.041352,-0.025788,-0.035554,0.077974
-0.09781,0.085908,-0.10117,-0.084382,-0.023651,-0.068208,-0.13016,0.032197
-0.075837,0.11124,-0.10758,-0.078279,-0.027619,-0.027314,-0.0083925,0.070344
-0.044404,0.04654,-0.052338,-0.10147,-0.040742,0.05478,0.1735,0.085908
-0.044404,-0.044404,-0.011749,-0.11063,-0.02884,0.059358,0.099947,0.033722
0.011139,-0.17685,0.06363,-0.083467,-0.015717,0.034943,0.041657,0.031281
0.013886,-0.26658,0.017243,-0.030671,0.0068666,0.0071717,0.1323,0.013886
0.033112,-0.23972,-0.013886,-0.020294,0.033112,0.0065614,-0.034943,-0.026703
0.015412,-0.25162,-0.0086976,-0.0047303,0.06424,-0.02945,-0.40421,-0.061494
-0.010529,-0.018158,-0.066377,-0.024567,0.069123,0.010224,-0.24277,-0.064851
0.017853,-0.0096132,-0.042878,0.023651,0.039216,0.034638,0.11276,-0.039826
0.013275,-0.00015259,-0.020905,-0.058747,0.061189,0.027924,0.16953,-0.040436
-0.039521,0.12039,-0.11887,-0.12741,0.085603,-0.0047303,0.12894,-0.037385
-0.031586,0.15152,-0.096895,-0.1088,0.033722,-0.0056458,0.18357,0.014801
-0.056611,-0.027924,-0.063325,-0.10666,0.013275,0.016327,0.14511,0.059358
-0.071565,-0.18692,-0.074006,-0.12436,0.0056458,-0.023346,-0.26871,0.051423
-0.12436,0.029755,-0.11337,-0.12039,-0.037385,-0.034943,-0.33249,0.074617
-0.12314,0.085908,-0.092927,-0.095064,-0.062104,0.012665,-0.016327,0.11276
-0.11856,0.066072,-0.121,-0.0972,-0.07126,0.054475,0.1854,0.13016
-0.052033,0.0013733,-0.050202,-0.074922,-0.11154,0.062104,0.10666,0.086824
-0.040742,0.041657,-0.058442,-0.063325,-0.070954,0.040131,0.25742,0.054475
-0.0086976,0.056306,-0.051118,-0.057221,0.091402,0.024872,0.3743,0.013886
0.074617,-0.11826,-0.057221,-0.16098,0.059968,0.044099,0.27634,-0.00045777
0.077974,-0.12406,-0.046845,-0.014191,-0.0019837,-0.040436,-0.5742,-0.10758
0.081941,-0.15885,0.034638,-0.01236,0.025177,-0.035248,-0.70085,-0.11704
0.060273,-0.1387,-0.0062562,-0.15457,0.0019837,0.065461,0.10452,-0.13169
0.0099184,-0.090181,-0.036164,-0.040436,0.051728,0.0010681,-0.11398,-0.16892
0.036774,-0.042573,0.013275,-0.002594,0.067597,-0.055695,-0.018158,-0.051118
0.0068666,0.02182,-0.064546,-0.058137,0.056306,-0.039521,0.15671,0.017243
-0.030671,-0.15579,-0.046845,-0.034638,0.047456,0.025483,0.30655,0.072786
-0.060883,-0.065461,-0.086519,-0.052949,0.041352,0.033112,0.21408,0.14542
-0.13382,0.079805,-0.13321,-0.14908,0.046845,-0.016327,0.2443,0.062104
-0.092927,0.030671,-0.11704,-0.095064,-0.031586,0.013886,0.31418,0.017548
-0.1091,0.098421,-0.1384,-0.14206,-0.040742,0.015412,-0.048371,0.030976
-0.14542,0.14389,-0.098726,-0.14145,-0.036774,-0.02182,-0.49729,0.032197
-0.1387,0.011444,-0.060883,-0.10147,-0.081025,0.0383,-0.17899,0.14725
-0.069734,-0.066987,-0.013886,-0.038911,-0.057221,0.031586,0.21317,0.12924
0.0056458,-0.16739,-0.0013733,0.015106,-0.035248,-0.025177,-0.32822,0.049897
0.033417,-0.095369,-0.05478,-0.03769,0.0041199,0.048371,-0.039521,-0.016938
0.034333,-0.037995,-0.030976,-0.030976,0.033112,0.04654,0.48661,-0.015717
0.051118,-0.070649,-0.023957,-0.082246,0.005951,-0.010224,-0.032502,-0.031281
0.11154,-0.12955,-0.026398,-0.11032,-0.015717,-0.013275,-0.55406,-0.077974
0.075837,-0.18448,-0.03006,-0.044709,0.065156,0.020905,-0.018769,-0.13657
0.027008,-0.20981,-0.031891,-0.045014,0.14817,0.031586,0.3743,-0.095369
-0.009308,-0.05478,-0.032807,-0.068818,0.121,0.040742,0.047456,-0.057527
-0.058137,0.0083925,-0.058137,-0.082246,0.059968,-0.055695,-0.28611,-0.10575
-0.094148,0.052644,-0.074617,-0.064851,-0.013581,-0.042267,-0.2565,-0.019074
-0.10971,0.084077,-0.10636,-0.076448,-0.0383,0.037995,0.15488,0.040436
-0.11154,0.087434,-0.11612,-0.10361,-0.042878,0.064851,0.26139,0.10422
-0.088045,0.076143,-0.11063,-0.11093,-0.034333,0.014191,0.14237,0.18265
-0.12131,0.073396,-0.10147,-0.14206,-0.0022889,-0.048371,0.0086976,0.14542
-0.088045,0.043793,-0.086519,-0.1207,-0.022126,0.035554,0.15335,0.12192
-0.035554,-0.029755,-0.069123,-0.10513,-0.058747,0.049287,0.015106,0.079194
-0.059663,-0.039521,-0.057832,-0.044404,-0.020905,-0.092317,-0.083467,0.023346
-0.052644,0.043183,-0.075837,-0.03769,-0.010529,0.0047303,0.094453,0.071565
-0.027314,0.033112,-0.015717,-0.098726,-0.026398,0.072175,0.1384,0.036774
0.0086976,-0.083467,0.010224,-0.10269,0.0028992,0.00076295,0.016022,-0.0013733
0.055695,-0.11795,-0.027924,-0.15213,0.026093,0.026703,-0.031281,-0.013581
0.083467,-0.31449,0.0013733,0.0096132,0.050507,0.032807,0.0086976,-0.034943
0.090791,-0.34653,-0.0206,0.10697,0.066377,-0.052033,-0.036774,-0.067903
0.081941,-0.19028,0.050202,-0.11765,0.057221,0.0077821,-0.00076295,-0.093843
0.059052,-0.11551,0.052949,0.04715,0.013581,0.041657,0.018158,-0.1265
0.0016785,-0.079805,-0.098726,-0.16556,0.019989,0.002594,-0.055695,-0.16312
-0.02945,0.012665,-0.16953,-0.10941,0.052949,0.040131,-0.086213,-0.13596
-0.064851,0.089876,-0.12436,-0.099031,0.083162,0.059663,0.027314,-0.10636
-0.11185,0.16983,-0.15061,-0.1445,0.025177,-0.0077821,-0.060883,-0.037079
-0.10056,0.14328,-0.07126,-0.10941,-0.053559,-0.057527,-0.059663,0.0086976
-0.069429,0.13352,-0.060883,-0.050507,-0.066682,-0.04593,0.088655,0.089265
-0.094453,0.16526,-0.14542,-0.092317,-0.020294,-0.033722,0.023041,0.11643
-0.084077,0.10788,-0.10849,-0.19821,-0.018463,0.01297,0.061799,0.17075
-0.059358,-0.04654,-0.026398,-0.032502,-0.026398,0.032807,0.04593,0.18631
-0.059663,-0.099641,-0.010224,-0.053254,0.023346,-0.02884,0.042267,0.1387
-0.033417,-0.1149,-0.0077821,-0.103,0.027314,-0.027314,0.16403,0.11032
0.023957,-0.17197,-0.00015259,0.04593,-0.082246,0.1146,0.23911,0.078584
0.041657,-0.25162,0.014191,-0.11673,0.027008,-0.0035096,-0.35782,-0.019074
-0.017548,-0.14878,-0.044709,-0.059663,0.085298,-0.044404,-0.42344,-0.11002
0.022736,-0.13443,0.0041199,-0.046235,0.0080873,0.082246,0.22263,-0.065766
0.035554,-0.13046,-0.0080873,-0.028229,0.023957,0.069429,0.066377,-0.089876
0.0010681,-0.10697,-0.055085,-0.047761,0.052338,0.020294,0.05539,-0.062715
-0.019074,-0.0028992,-0.077974,-0.073701,0.070039,-0.04654,0.0032044,-0.069429
-0.00076295,0.078584,-0.068513,-0.0972,0.037995,-0.029755,-0.045014,-0.00045777
-0.033417,0.09781,-0.17105,-0.067597,0.0032044,-0.037385,-0.043183,-0.041352
-0.095979,0.10208,-0.13291,-0.1326,-0.0013733,0.016632,-0.039521,-0.015717
-0.1146,0.05417,-0.10849,-0.16861,-0.018158,0.045624,0.05417,0.05417
-0.11948,0.041657,-0.11032,-0.16495,-0.087434,0.042573,0.30411,0.086519
-0.1091,-0.0074769,-0.068818,-0.11154,-0.082246,0.07126,0.49851,0.11398
-0.077974,-0.0096132,-0.042878,-0.050813,-0.043793,0.002594,0.020294,0.14664
0.0010681,-0.074922,-0.032807,0.010834,-0.002594,-0.090791,-0.17441,0.11673
0.033722,-0.041962,0.0019837,-0.026398,0.039826,-0.06363,0.050507,0.048066
-0.0013733,-0.028229,-0.0047303,-0.049287,0.019379,-0.016938,-0.45335,-0.048981
0.043183,-0.047761,-0.042878,-0.042573,0.018158,0.0062562,-0.76768,-0.058747
0.034028,-0.077668,-0.026398,-0.070649,0.055085,0.078889,0.47318,-0.068818
0.019379,-0.070039,-0.024872,-0.047456,0.059663,0.0038148,0.098421,-0.087129
0.01297,-0.12802,-0.031891,-0.062715,0.0383,-0.009308,-0.27054,-0.086213
0.028229,-0.14176,-0.04715,-0.077668,0.035859,0.02121,-0.082856,-0.065766
0.013886,-0.16892,-0.032197,-0.070954,0.044099,0.05478,0.49973,0.0080873
-0.0035096,-0.15702,-0.050507,-0.06424,0.024872,0.030365,0.40787,0.020905
-0.02121,0.096284,-0.11063,-0.091096,0.0065614,0.05417,0.050202,-0.0080873
-0.049287,0.16464,-0.12039,-0.11398,0.019989,-0.041657,-0.91081,-0.078279
-0.066682,0.065766,-0.094453,-0.1326,-0.023346,-0.0013733,-0.10391,-0.0090028
-0.089265,-0.13962,-0.10086,-0.13199,-0.056611,0.037079,0.29648,-0.012055
-0.12955,-0.060273,-0.088655,-0.1146,-0.04593,-0.0038148,0.032197,0.042878
-0.12192,0.051118,-0.08896,-0.073701,-0.041352,-0.032807,0.12253,0.1561
-0.057221,0.10178,-0.068208,-0.052949,-0.017243,-0.049287,0.18875,0.12253
0.013275,0.053559,-0.028229,-0.0086976,-0.0032044,0.0062562,0.15854,0.059052
0.044404,-0.0074769,-0.0047303,-0.030671,0.00076295,0.062409,0.048981,0.055695
0.034333,-0.14481,-0.026703,-0.095674,0.042878,-0.014191,-0.067903,0.082856
-0.013275,-0.10605,-0.034028,-0.15793,0.048981,0.017853,-0.059358,0.019684
-0.077974,-0.067903,-0.016327,-0.09659,0.076753,-0.031586,-0.16159,-0.022126
-0.045014,-0.087434,-0.036469,-0.02945,0.0065614,0.063325,0.33829,0.040436
-0.015412,-0.11582,-0.035554,0.0028992,-0.0096132,0.10117,0.097505,0.019379
0.03006,-0.15213,-0.0080873,0.066072,0.033417,0.032502,-0.096284,0.0071717
-0.0074769,-0.064546,-0.0206,-0.031586,0.058137,0.002594,0.0383,-0.096284
-0.062104,0.049287,-0.11765,-0.1561,0.092317,-0.064546,-0.033722,-0.10605
-0.074006,0.051423,-0.11093,-0.11978,0.011444,-0.02945,-0.065461,-0.04715
-0.069734,-0.079805,-0.074311,-0.061799,-0.014191,0.019989,0.015106,-0.037079
-0.070039,-0.074311,-0.13474,-0.041352,0.0032044,0.0383,0.067597,0.027314
-0.073091,0.11978,-0.12284,-0.16373,-0.047761,0.013886,0.081331,0.074006
-0.10727,0.21225,-0.086519,-0.25956,-0.13626,-0.0077821,0.0080873,0.072786
-0.075837,0.10636,-0.080415,-0.077668,-0.049592,-0.045014,0.10025,0.092927
-0.030976,-0.058747,-0.01297,-0.058747,0.031891,-0.038911,-0.059663,0.082551
0.03006,-0.15244,-0.015717,-0.06363,0.02884,-0.02182,-0.13352,0.031891
0.053559,-0.12467,-0.03769,-0.033417,-0.028534,0.063325,0.070344,0.0099184
0.069429,-0.18662,-0.024262,-0.0068666,-0.045624,0.092927,0.037385,-0.0096132
0.071565,-0.17044,-0.02884,-0.0047303,0.011444,0.039216,-0.046845,-0.0383
0.075532,-0.13352,0.0047303,-0.032502,0.094759,-0.061494,-0.059358,-0.060578
0.103,-0.1387,0.017548,-0.052338,0.10452,-0.039521,-0.10758,-0.066987
0.082856,-0.13413,-0.041657,-0.18112,0.10086,-0.02884,-0.073396,-0.11398
-0.017548,-0.005951,-0.056306,-0.10147,0.082551,0.024567,0.049592,-0.095064
-0.074617,0.074617,-0.088655,-0.046845,0.017853,0.08957,0.1796,-0.012665
-0.13443,0.094148,-0.11673,-0.10788,-0.010529,0.044709,0.13535,0.041657
-0.17441,0.099641,-0.11063,-0.11337,-0.030365,0.010529,-0.056001,0.075227
-0.12924,0.07248,-0.095369,-0.093843,-0.041047,-0.020905,0.016632,0.13626
-0.11795,0.10239,-0.1323,-0.075227,-0.051728,-0.084688,-0.018463,0.052949
-0.088045,0.0972,-0.098726,-0.092622,-0.042573,0.032502,-0.00076295,0.031281
-0.081331,0.022736,-0.064546,-0.10513,-0.02121,0.013886,0.0086976,0.013886
-0.044404,0.035248,-0.065766,-0.083162,-0.04593,0.027924,0.019074,0.012055
-0.026398,-0.1387,-0.088045,-0.037079,-0.052644,0.038605,0.08011,0.027619
0.013275,-0.2977,0.013581,-0.08835,-0.035554,0.024567,0.16007,0.075532
0.055695,-0.20951,0.024262,-0.033722,0.016632,-0.0035096,0.057221,0.091402
0.039826,-0.15488,-0.016632,-0.045014,0.067292,0.019074,-0.069429,0.072786
0.02945,-0.082856,0.036164,-0.042573,0.11185,0.024872,-0.28946,-0.024262
0.0035096,0.0383,-0.078279,-0.050202,0.059052,0.034028,-0.0041199,-0.070039
0.051728,-0.05417,-0.030976,-0.056611,0.052338,-0.061189,-0.10117,-0.075532
0.027619,-0.082551,-0.01297,-0.059663,0.078279,-0.014191,0.014191,-0.069123
-0.096895,0.0083925,-0.092927,-0.097505,0.048981,0.00076295,0.21958,-0.10788
-0.11978,0.020294,-0.1033,-0.10361,-0.030976,0.084688,0.19852,-0.019684
-0.074617,-0.0019837,-0.090486,-0.10941,-0.027619,0.08072,0.076448,-0.0053407
-0.055695,-0.075837,-0.038911,0.015106,-0.01236,-0.037385,-0.17166,-0.002594
-0.02945,-0.022431,-0.10361,-0.091707,-0.011444,-0.065156,-0.21958,0.039521
-0.081025,0.10269,-0.12284,-0.19364,0.037995,-0.08072,0.12619,0.036774
-0.076753,0.093233,-0.099641,-0.11093,-0.0090028,-0.037995,0.075227,0.059663
-0.065766,0.075837,-0.088655,-0.11185,-0.046845,0.051423,-0.083772,0.099641
-0.029755,-0.032502,-0.083162,-0.097505,-0.051118,0.043183,-0.14023,0.098726
0.039826,-0.14023,-0.0083925,-0.065156,-0.069734,0.04715,0.015412,0.056306
-0.025788,-0.037995,-0.014496,-0.081025,-0.027008,0.058137,0.25589,0.0068666
-0.044709,-0.028534,-0.029145,-0.22934,0.012665,0.034028,0.36728,0.016938
0.026703,-0.14572,0.0041199,0.25986,0.011139,0.02945,0.19944,0.015412
0.041962,-0.15702,0.005951,0.061189,0.081636,-0.044099,-0.85679,-0.11246
0.030365,-0.11093,-0.016938,-0.26719,0.094759,-0.07187,-0.43503,-0.10147
0.040131,-0.103,-0.020905,-0.0047303,-0.057221,0.092317,0.44205,-0.016938
0.044404,-0.073701,-0.070649,-0.016632,0.044404,0.091096,0.39078,-0.0010681
0.040436,0.0047303,-0.10605,-0.12039,0.14054,0.02121,0.094453,0.018769
0.016938,0.0019837,-0.08835,-0.10513,0.070649,-0.14603,-0.51225,-0.0013733
-0.041657,-0.034943,-0.098421,-0.10452,0.026093,-0.038911,-0.24887,-0.0013733
-0.07187,0.0074769,-0.079194,-0.14328,-0.0068666,0.099947,0.75608,0.060273
-0.12375,0.005951,-0.064546,-0.087739,-0.038911,0.028229,0.35416,0.06424
-0.12131,0.056611,-0.10819,-0.076753,-0.047761,0.010529,-0.22568,0.017853
-0.099336,0.11185,-0.11704,-0.085908,-0.048371,-0.041047,-0.83879,0.02945
-0.12467,0.22995,-0.11154,-0.12467,-0.044404,-0.0035096,0.10361,0.050202
-0.066987,0.04654,-0.016938,-0.090486,-0.058747,0.050202,0.40085,0.078584
-0.067903,-0.060578,-0.02182,-0.091707,-0.025177,0.030976,0.1091,0.085603
-0.048676,-0.06363,-0.016327,-0.040436,-0.0047303,-0.009308,0.043793,0.0056458
-0.014191,-0.10269,-0.033112,-0.04654,-0.0083925,0.066377,0.20371,0.036164
0.0080873,-0.14237,-0.034943,-0.044709,0.035554,0.01297,0.24582,0.036774
0.074006,-0.39414,0.027619,0.0080873,0.039826,-0.010224,0.13931,-0.034943
0.041047,-0.29892,-0.020905,-0.025177,0.069734,0.01297,-0.33951,-0.089265
0.018158,-0.084382,-0.019989,-0.085603,0.11826,-0.03769,-0.40024,0.002594
0.034333,-0.052949,-0.018463,-0.06363,0.069123,0.059052,-0.22263,0.0041199
0.044099,0.013581,-0.017853,-0.052644,0.036774,0.1149,0.27451,-0.066072
-0.0206,0.084077,-0.12467,-0.103,0.055085,0.037995,0.4741,-0.10391
-0.08896,0.066072,-0.1387,-0.074311,0.025788,-0.02884,-0.056916,-0.10819
-0.11154,0.08011,-0.10117,-0.027314,-0.019074,-0.040436,-0.24949,0.011749
-0.11521,0.062409,-0.11063,-0.13535,-0.014191,-0.029755,0.087739,0.1384
-0.092012,0.087129,-0.11521,-0.1976,-0.024262,-0.023346,0.15335,0.11826
-0.078889,0.040131,-0.090791,-0.16617,-0.09781,0.0050355,-0.06363,0.10819
-0.060578,-0.0096132,-0.082856,-0.13169,-0.099031,0.0383,0.01297,0.074311
-0.056001,0.014191,-0.064851,-0.056611,-0.036469,0.042878,0.067903,0.039216
0.0035096,-0.078584,-0.062104,-0.027314,-0.018769,0.039216,0.053254,0.053559
0.043183,-0.14267,0.044404,-0.013581,0.026703,0.022431,-0.013275,-0.0083925
0.069123,-0.14206,0.0047303,-0.036164,0.075227,-0.043488,-0.099031,-0.066987
0.055695,-0.16861,0.0056458,-0.042573,0.078279,-0.055085,-0.099947,-0.069734
0.025177,-0.17899,0.0022889,-0.048676,0.046845,0.018769,0.032807,-0.059968
0.031586,-0.09781,-0.02182,-0.058137,0.064546,-0.0047303,0.17227,-0.027314
0.031281,-0.030976,-0.05478,-0.05417,0.059663,0.0206,0.17288,-0.024262
-0.0013733,0.041962,-0.081025,-0.072175,0.02884,0.035554,-0.060578,-0.067597
-0.011444,0.033417,-0.10208,-0.093843,0.019989,0.016022,-0.032807,-0.056001
-0.045014,0.031586,-0.11673,-0.093843,-0.012055,0.02945,0.031281,-0.046845
-0.077668,-0.0047303,-0.12222,-0.10758,-0.017548,0.0032044,-0.051118,-0.030671
-0.10208,0.033722,-0.074311,-0.091402,-0.013581,-0.017243,0.049897,0.055085
-0.14267,0.10513,-0.087129,-0.12558,-0.02945,-0.020294,-0.060578,0.097505
-0.11917,0.05539,-0.08957,-0.10941,-0.055695,-0.02884,-0.24308,0.10971
-0.12802,0.066072,-0.1088,-0.10849,-0.070649,0.075227,0.31968,0.081331
-0.050507,-0.035859,0.0019837,-0.075227,-0.040436,0.0041199,0.065156,0.072175
0.019379,-0.05417,-0.005951,-0.024262,-0.028534,-0.017853,-0.40696,0.049287
0.051423,-0.19059,0.014191,-0.040131,-0.0032044,0.048981,0.090486,-0.0056458
0.057527,-0.22751,-0.060273,-0.059663,0.041352,-0.0096132,0.047456,0.032807
0.025788,-0.10025,-0.025483,-0.060273,0.067597,-0.0074769,0.047456,0.049592
-0.017548,-0.040436,-0.027619,-0.068513,0.073091,0.0086976,0.016632,0.05417
0.00076295,-0.070344,-0.0068666,-0.039216,0.04593,0.030365,0.05539,0.03769
0.0028992,0.0206,-0.0383,-0.056916,0.056306,0.020294,0.067903,-0.022736
-0.022431,-0.070344,-0.02884,-0.089265,0.074617,0.018158,-0.0086976,-0.070954
-0.0062562,-0.13474,-0.010834,-0.078279,0.05539,0.034638,-0.0035096,-0.063935
-0.038911,-0.025788,-0.11429,-0.099031,0.016632,0.027008,-0.010529,-0.066072
-0.062715,0.048371,-0.12253,-0.052644,0.0038148,0.026398,0.046235,-0.10086
-0.082246,0.045624,-0.13443,-0.04654,-0.029145,0.036164,0.41154,0.0050355
-0.08957,0.017853,-0.08896,-0.16861,-0.045014,0.058747,0.64927,0.11612
-0.069123,0.039521,-0.088655,-0.013275,-0.042573,0.043488,0.40238,0.10758
-0.077363,0.060273,-0.12741,-0.17288,-0.012665,-0.080415,-0.77012,0.027619
-0.093233,0.068513,-0.092927,-0.12589,0.0010681,-0.15488,-1.2999,0.037079
-0.057221,-0.0065614,-0.034943,-0.12375,0.044099,-0.092317,0.19364,0.076753
-0.027619,-0.068208,-0.023957,-0.10056,-0.0028992,0.13931,0.25895,0.030976
0.036774,-0.11185,-0.0068666,-0.043488,-0.047761,0.091402,0.19333,-0.019379
0.041352,-0.11063,0.016632,-0.0083925,-0.024567,-0.047456,0.024262,-0.035554
0.047761,-0.078584,-0.032502,0.016632,0.033417,-0.013275,-0.057221,-0.041657
0.08835,-0.11032,-0.026703,-0.045319,0.081636,0.044709,0.0041199,-0.039826
0.066682,-0.11368,-0.019989,-0.068818,0.056001,0.024872,0.067903,-0.048371
0.048066,-0.14054,-0.023957,-0.065766,0.02182,-0.032807,-0.01236,-0.070649
0.013275,-0.092927,-0.049897,-0.030976,-0.0010681,0.047456,0.015412,-0.096895
-0.019074,-0.18173,-0.034333,-0.092927,0.017853,0.0010681,0.010529,-0.088045
-0.061494,-0.088045,-0.11246,-0.11307,0.011749,0.005951,0.17136,0.0068666
-0.11734,0.08957,-0.1268,-0.12375,0.030976,0.037995,0.41398,0.103
-0.10758,0.095369,-0.1088,-0.10452,0.043488,0.034333,0.23484,0.14908
-0.081025,0.073396,-0.13077,-0.082551,-0.026703,0.031586,-0.29953,0.090486
-0.10971,0.16648,-0.1091,-0.11154,-0.026398,-0.0047303,-0.20829,0.039216
-0.077058,0.10575,-0.084688,-0.11093,-0.024262,-0.033722,0.21073,0.11154
-0.047761,0.073091,-0.034333,-0.096284,-0.056916,-0.0090028,-0.10636,0.14115
-0.048981,0.028534,-0.033112,-0.067597,-0.055695,0.035248,0.055085,0.12253
-0.023041,-0.082856,-0.022126,-0.041657,-0.02945,0.055695,0.30472,0.08011
-0.0010681,-0.097505,-0.022431,-0.040436,0.024872,-0.0053407,0.2208,-0.010224
0.011139,-0.087739,0.0022889,-0.051728,0.065461,-0.076143,-0.42649,-0.1387
-0.019379,-0.11948,-0.0096132,-0.093233,0.054475,-0.0077821,-0.44266,-0.1323
0.018769,-0.19303,-0.0096132,-0.15763,-0.011444,0.1442,0.31296,0.0035096
0.045319,-0.23789,-0.0086976,0.19455,0.0050355,0.069123,0.08011,-0.041962
0.002594,-0.10819,-0.058442,-0.11124,0.095674,-0.064546,-0.043488,-0.070954
-0.016327,-0.048676,-0.065766,-0.15366,0.093233,-0.025788,0.02182,-0.0383
-0.043488,-0.015717,-0.052949,-0.032502,0.0038148,0.055695,0.072786,-0.015717
-0.087434,0.049287,-0.10483,-0.20798,0.014191,0.0044251,0.068513,0.020905
-0.061799,0.066682,-0.099336,0.056611,-0.0050355,-0.016022,-0.03769,0.10544
-0.071565,0.12589,-0.1323,-0.13565,0.0013733,0.0071717,-0.051118,0.076753
-0.083162,0.12772,-0.06424,-0.16159,0.009308,0.0022889,0.03006,0.059052
-0.08835,0.08072,-0.121,-0.079805,-0.074617,0.0065614,0.28641,-0.024872
-0.041657,0.067292,-0.10056,-0.051728,-0.02121,-0.048066,0.0080873,-0.038911
-0.016632,-0.078279,-0.050813,-0.064546,-0.038911,0.035554,-0.31296,0.065766
-0.0010681,-0.23239,-0.036164,-0.095674,0.011749,-0.098116,-0.24155,0.025177
-0.0071717,-0.18204,-0.017853,-0.067597,0.016632,0.019074,0.36454,0.056611
0.0041199,-0.14023,-0.016327,-0.065766,0.030976,0.054475,0.17014,0.055695
0.027008,-0.1326,-0.013581,-0.048981,0.030976,0.034638,-0.2153,0.028229
0.051118,-0.048676,-0.02182,-0.05417,0.033112,0.009308,-0.32364,0.011749
0.065461,-0.13291,0.025788,-0.035554,0.067903,0.022736,0.11093,-0.0086976
0.052949,-0.13901,-0.024567,-0.065461,0.036164,0.046235,0.0086976,-0.14878
-0.0022889,-0.040436,-0.058137,-0.0972,0.0077821,0.044709,-0.027314,-0.1796
-0.023651,-0.0041199,-0.040436,-0.065766,0.02945,-0.0096132,0.055695,-0.094453
-0.010224,-0.035859,-0.081025,-0.081636,0.049287,-0.036164,0.053864,0.0096132
-0.048371,0.047761,-0.14939,-0.11032,0.037385,-0.034333,0.26108,0.069429
-0.10544,0.061189,-0.10941,-0.11765,-0.023346,0.027924,0.17624,0.018769
-0.11154,0.063325,-0.099031,-0.11673,-0.050813,-0.024262,-0.21286,0.095369
-0.079805,0.051423,-0.040742,-0.088655,-0.049592,-0.020294,-0.37675,0.121
-0.069734,0.042573,-0.055085,-0.093233,-0.04715,0.068513,0.18875,0.08957
-0.083162,0.066682,-0.1091,-0.082856,-0.039521,0.048676,0.21073,0.05417
-0.049897,0.048066,-0.084993,-0.10056,-0.028534,0.010224,0.022126,0.043183
-0.017548,-0.022736,-0.034638,-0.072175,0.026093,-0.02884,0.28061,0.047456
-0.038911,-0.041962,-0.028534,-0.070954,0.022126,0.035554,0.54826,0.013886
0.0035096,-0.11612,-0.0086976,-0.042878,0.0050355,0.041352,0.43076,0.0077821
0.010834,-0.12436,-0.011444,-0.012055,0.0056458,-0.00076295,-0.67124,-0.13993
0.010529,-0.14267,-0.011444,-0.018463,0.041962,0.048066,-1.378,-0.17014
0.011139,-0.13565,-0.022431,-0.021515,0.058137,0.11307,0.27665,-0.0074769
0.049287,-0.18845,-0.0038148,-0.032197,0.060578,0.0383,0.3151,0.039216
-0.032807,-0.10636,-0.0206,-0.064546,0.07248,-0.017243,0.17411,-0.0013733
-0.032502,-0.0053407,-0.05417,-0.06302,0.088045,-0.073091,0.088655,0.081331
-0.045624,0.04593,-0.12131,-0.091402,0.061799,-0.043488,0.0071717,0.052033
-0.0972,0.1207,-0.13779,-0.14206,0.022126,-0.031281,-0.026703,0.045014
-0.08072,0.16831,-0.11032,-0.1326,-0.050507,0.013886,-0.041047,0.098726
-0.082246,0.13199,-0.12894,-0.12985,-0.051728,0.026703,0.11765,0.041962
-0.052033,0.02945,-0.081331,-0.089876,-0.050813,0.016938,0.10391,0.030976
-0.0071717,-0.10086,-0.062715,-0.091096,-0.063325,0.017853,0.00045777,0.066072
0.027314,-0.26658,-0.099336,-0.078584,-0.041657,-0.0041199,0.022126,-0.0086976
0.056306,-0.18753,-0.010834,-0.061494,-0.038605,0.050202,0.088045,0.016938
0.013886,-0.067903,0.034028,-0.026398,0.018158,-0.0086976,-0.0022889,-0.044404
0.0068666,-0.044099,-0.045624,-0.047456,0.086213,-0.10056,-0.10422,-0.024567
-0.01297,-0.022126,-0.040436,-0.034333,0.045319,0.0041199,-0.081941,-0.018158
-0.0086976,-0.07187,-0.018769,-0.06424,0.0096132,0.053254,0.077974,-0.082246
0.023041,-0.08072,-0.026703,-0.1387,0.052338,-0.012055,-0.034638,-0.045624
0.015106,-0.074922,-0.035859,-0.12345,0.046845,0.0047303,-0.066987,-0.066682
-0.0096132,-0.050813,-0.031586,-0.026398,0.013581,0.047456,0.013581,-0.041352
-0.052949,-0.039521,0.0044251,0.0099184,0.066377,-0.042878,0.069734,-0.033417
-0.05478,-0.002594,-0.033722,-0.024567,0.091402,-0.00076295,0.13016,-0.0044251
-0.10636,0.044404,-0.13169,-0.11887,0.045014,0.096895,0.13718,0.033112
-0.11612,0.024262,-0.13748,-0.1091,-0.0068666,0.036774,0.04715,0.053254
-0.081025,0.018158,-0.11887,-0.093843,-0.062715,0.036164,-0.041047,0.076143
-0.071565,0.074006,-0.12222,-0.14939,-0.0795,0.037995,-0.027008,0.073701
-0.061494,0.0383,-0.10971,-0.16892,-0.087129,0.04654,0.16068,0.098726
-0.050507,0.044404,-0.087434,-0.16007,-0.055695,-0.028229,0.03769,0.12039
-0.021515,0.0099184,-0.050507,-0.076753,0.0099184,-0.12772,-0.20676,0.066072
-0.00045777,0.0016785,-0.016938,-0.03769,0.033417,0.039216,-0.1268,-0.031281
0.041352,-0.13535,0.010529,0.025788,-0.011444,0.11673,0.32609,-0.05539
0.023346,-0.16983,0.014496,0.041352,0.030976,-0.072175,-0.24338,-0.053864
-0.014801,-0.068818,-0.030365,-0.050507,0.10056,-0.089876,-0.049897,0.042878
0.047761,-0.07248,-0.041657,-0.069734,0.052033,0.022736,0.13687,0.025483
0.037385,-0.22019,-0.02884,-0.17777,-0.0056458,0.030365,-0.28763,-0.10239
0.0090028,-0.090791,-0.011444,-0.14206,0.034943,0.0053407,0.06302,-0.05539
-0.016327,-0.058442,0.0022889,0.0077821,0.035554,0.042267,0.017548,-0.022736
-0.018463,-0.11093,-0.066987,-0.040436,0.031281,0.043183,0.074617,-0.012665
-0.086213,0.069123,-0.1387,-0.094453,0.027008,-0.0077821,0.030976,-0.0050355
-0.1033,0.051118,-0.06424,-0.096284,-0.0032044,0.0041199,-0.06302,0.0053407
-0.10636,0.011444,-0.12955,-0.10636,-0.039521,0.05539,0.10605,0.031891
-0.11368,0.051118,-0.14054,-0.10239,-0.032502,0.044099,0.13382,0.013275
-0.090791,0.050202,-0.098116,-0.09781,-0.018769,0.024567,0.033722,0.037995
-0.0972,0.06424,-0.088655,-0.075837,-0.037079,-0.017243,-0.10849,0.08072
-0.089265,0.079194,-0.094148,-0.11368,-0.040742,-0.04715,-0.18997,0.13474
-0.021515,0.02121,-0.0041199,-0.10483,-0.035859,0.019379,0.18296,0.092927
0.0096132,-0.036469,-0.04654,-0.026703,-0.022736,0.032197,0.032807,0.031891
0.05539,-0.15824,0.002594,-0.014496,0.022126,0.060273,0.060578,-0.0019837
0.048066,-0.23575,-0.012665,-0.04715,0.036164,0.081331,0.19242,0.00076295
0.044099,-0.12345,-0.024567,-0.070344,0.045624,0.005951,0.098116,-0.0044251
0.048371,-0.098726,-0.016938,-0.086824,0.053559,-0.0795,-0.14969,0.022736
0.027314,-0.12589,-0.0028992,-0.040131,0.035554,0.050507,-0.29221,-0.0035096
0.0099184,-0.10086,-0.023651,-0.048981,0.057832,0.027314,0.031281,0.019989
0.01297,-0.093538,-0.054475,-0.047456,0.059052,-0.027619,0.059052,-0.012055
-0.039216,-0.042573,-0.04715,-0.049287,0.033722,0.010224,-0.017243,-0.059663
-0.019074,-0.010529,-0.084382,0.02121,0.016632,0.01236,0.005951,-0.049287
-0.059968,0.085908,-0.13504,-0.023651,0.029755,-0.027008,-0.0010681,-0.025788
-0.077974,0.17136,-0.1445,-0.16342,0.033112,-0.026093,-0.002594,-0.00076295
-0.08835,0.15763,-0.11337,-0.2974,-0.017243,0.013275,0.027314,0.023346
-0.095369,0.12924,-0.095369,-0.1326,-0.017548,0.00076295,0.094148,0.010529
-0.12772,0.11124,-0.096284,-0.103,-0.059968,0.048981,0.33402,0.078584
-0.07126,0.016632,-0.067292,-0.078279,-0.055085,0.028229,0.34012,0.098726
-0.016327,-0.12345,-0.019989,-0.05539,-0.050507,0.043183,0.23484,0.094759
0.051728,-0.30777,0.033722,-0.045319,-0.0056458,0.0022889,-0.39445,0.022736
0.027008,-0.3389,-0.0013733,-0.037079,0.037385,-0.033112,-0.034333,0.015106
0.002594,-0.08957,-0.036774,-0.048371,0.039216,-0.058442,-0.90532,-0.071565
-0.0041199,-0.035859,-0.027008,-0.041657,0.039826,0.0065614,-0.42741,-0.066987
0.011139,-0.054475,0.002594,-0.030365,0.051118,0.093233,0.37125,-0.033112
0.012665,-0.032807,-0.039826,-0.048676,0.075227,-0.026093,0.0035096,-0.045624
0.041352,-0.083467,-0.037079,-0.051423,0.085908,-0.063325,0.074311,-0.070954
0.02182,-0.042267,-0.050813,-0.072786,0.056001,0.035554,0.090181,-0.076143
-0.0065614,-0.010529,-0.077974,-0.10056,0.023651,0.022736,0.0010681,-0.065156
-0.025483,0.002594,-0.11673,-0.12253,-0.031281,0.016632,0.069429,0.038911
-0.08835,0.051728,-0.12528,-0.084688,-0.034638,0.022431,0.13169,0.090791
-0.09781,0.1091,-0.14878,-0.11887,-0.0096132,-0.005951,0.073396,0.1265
-0.15488,0.12039,-0.088045,-0.1738,-0.0071717,-0.0099184,-0.0206,0.074617
-0.13443,0.034333,-0.082246,-0.10971,-0.074617,0.083467,0.18265,0.1268
-0.10056,-0.01236,-0.073396,-0.098421,-0.06363,0.031586,0.215,0.15244
-0.012665,-0.1146,-0.023041,-0.028534,-0.013581,-0.053864,-0.081331,0.0795
0.002594,-0.11734,-0.0099184,-0.047761,-0.015106,0.017853,-0.1265,0.02945
0.039521,-0.17655,0.02945,-0.058442,-0.030671,0.060273,0.099031,-0.002594
0.011139,-0.052644,-0.074311,-0.082856,0.027619,-0.042267,-0.027314,-0.014191
-0.028534,-0.031586,-0.066377,-0.13474,0.13809,-0.053254,-0.015412,-0.091402
-0.013275,-0.10391,0.042573,0.20066,0.10361,0.091402,0.21866,-0.058137
-0.022431,-0.074617,-0.034638,-0.24369,0.0068666,0.073396,-0.011139,-0.015106
-0.0019837,-0.037995,-0.027924,-0.075532,-0.050813,0.09659,-0.011444,-0.073091
0.011444,0.024262,-0.017548,0.069123,-0.0028992,0.016632,0.082856,-0.086824
-0.017548,0.067597,-0.103,-0.23728,0.075532,-0.048066,-0.13748,-0.057832
0.00076295,0.036164,-0.10727,-0.024567,0.042878,-0.025177,-0.10605,0.031281
-0.012055,0.037385,-0.086213,-0.017548,-0.050507,0.0090028,0.13169,0.082246
0.0068666,-0.10544,-0.077363,-0.2089,0.011749,-0.02182,0.059052,0.035248
-0.015412,-0.33158,-0.050813,-0.079805,-0.022126,0.028534,-0.043488,0.027924
-0.070649,-0.072786,-0.092317,-0.08896,0.013581,-0.017243,-0.14572,0.034028
-0.074617,0.15579,-0.099641,-0.069123,-0.033112,0.039216,0.14542,0.084077
-0.068818,0.08011,-0.06424,-0.025483,-0.053559,0.018158,0.14481,0.065156
-0.018769,-0.029755,-0.081941,-0.077668,-0.0022889,-0.12955,-0.099641,-0.038605
0.043488,-0.049592,-0.061189,-0.12863,0.01297,-0.024262,-0.16373,-0.064546
0.014191,-0.046235,-0.026398,-0.077058,-0.022736,0.13718,0.12253,-0.061799
-0.031281,0.0086976,-0.024567,-0.069123,0.037079,-0.05539,-0.50401,-0.019074
-0.027619,0.017243,-0.016632,-0.057221,0.060273,-0.0053407,-0.20066,0.08957
-0.025177,-0.01297,0.0035096,-0.050202,0.0383,0.068513,0.64012,0.084688
0.012055,-0.10849,-0.010834,-0.017243,0.071565,-0.0096132,0.2034,-0.011139
0.024262,-0.17777,-0.025788,-0.024567,0.06302,0.026398,-0.043793,-0.035859
-0.0096132,-0.099641,-0.04715,-0.018463,0.05417,-0.013275,-0.35355,-0.068818
-0.002594,-0.17594,-0.0035096,-0.023346,0.033417,0.024872,0.075837,-0.07126
-0.019074,-0.22965,-0.11765,-0.098421,0.0206,0.017243,0.069734,-0.0074769
-0.078279,0.12955,-0.16007,-0.14908,0.0032044,0.014496,0.0016785,0.0032044
-0.067292,0.15976,-0.12772,-0.13535,-0.047761,0.026398,0.1677,0.045624
-0.065156,0.057221,-0.10758,-0.1146,-0.065156,-0.016022,0.016632,0.07126
-0.065156,0.028534,-0.099031,-0.1265,-0.040436,-0.060578,-0.34958,0.051118
-0.11307,0.0795,-0.08957,-0.13321,-0.030671,0.005951,-0.0086976,0.066377
-0.087129,0.016327,-0.063325,-0.0795,-0.052033,0.059052,0.1561,0.121
-0.04654,-0.057832,-0.019074,-0.040131,-0.041962,0.02945,0.05539,0.098726
-0.013581,-0.052949,-0.034943,-0.078584,-0.0010681,0.0086976,0.0047303,0.035248
0.02121,-0.059358,-0.020294,-0.065156,-0.0028992,0.043488,-0.038605,0.019684
-0.0047303,-0.035859,-0.0065614,-0.032502,0.014801,0.0086976,-0.058137,-0.019379
0.03769,-0.10849,-0.0053407,-0.021515,0.033722,-0.011749,0.035859,-0.023346
0.019684,-0.092927,-0.044099,-0.045624,0.05417,0.025483,0.15427,-0.065766
0.034333,-0.073701,-0.044709,-0.048676,0.062409,0.022126,0.17899,-0.062104
-0.0086976,-0.066377,-0.01236,-0.099336,0.045624,0.037079,0.081636,-0.045014
0.010834,-0.06424,-0.043793,-0.093538,0.056001,0.009308,-0.020294,-0.05478
0.017853,-0.04654,-0.048066,-0.03006,0.065766,0.016327,0.075532,-0.076143
-0.061189,0.0065614,-0.040131,-0.09659,0.059968,-0.031586,-0.17227,-0.095979
-0.093233,-0.005951,-0.092622,-0.076753,0.042267,-0.059358,-0.0795,-0.013581
-0.092927,-0.023346,-0.14572,-0.078889,-0.030976,0.051423,0.1854,0.092622
-0.12528,0.0071717,-0.0972,-0.12284,-0.058442,-0.03006,0.16922,0.11307
-0.099947,-0.002594,-0.13565,-0.11917,-0.059358,-0.10575,0.20768,0.14206
-0.082246,0.015717,-0.11093,-0.12741,-0.059052,0.049287,0.075837,0.067597
-0.029755,-0.028229,-0.063935,-0.13596,-0.050813,0.039521,-0.58213,0.016022
-0.00076295,-0.0044251,-0.034028,-0.030365,-0.016938,0.051118,0.28519,0.068513
0.011139,-0.042267,-0.012665,-0.055695,0.025177,-0.011749,-0.28763,0.0086976
0.02884,-0.065461,-0.0041199,-0.056306,0.0206,-0.036469,-0.66361,0.029145
0.037995,-0.13779,-0.00045777,-0.043183,0.033112,0.021515,0.36942,0.051423
0.053559,-0.16495,0.022736,-0.010529,0.066377,0.005951,0.10636,0.010834
0.0028992,-0.11337,-0.013886,-0.023651,0.05417,0.0090028,0.037385,-0.032807
-0.002594,-0.058442,-0.041047,-0.04715,0.051728,0.010834,0.067597,-0.067903
-0.0080873,0.016022,-0.088045,-0.10086,0.047456,0.031281,0.049592,-0.05539
-0.032807,0.11765,-0.10544,-0.10147,0.015106,0.037995,0.045014,-0.065766
-0.067292,0.076143,-0.1091,-0.10727,-0.0019837,0.034028,0.045014,-0.060578
-0.073091,-0.016022,-0.10819,-0.10544,-0.010529,0.009308,0.019989,-0.024872
-0.096284,-0.040436,-0.029755,-0.10361,-0.01236,-0.0074769,0.033417,0.049592
-0.085908,-0.11276,-0.064546,-0.077668,-0.013581,0.0065614,0.024262,0.10239
-0.093538,-0.013581,-0.13107,-0.11551,-0.040742,-0.0041199,0.023041,0.098421
-0.060578,0.0056458,-0.077363,-0.059663,-0.034638,-0.0050355,0.025177,0.05539
-0.042878,0.053559,-0.093233,-0.089876,-0.04715,0.077363,0.17258,0.045319
0.0028992,0.0053407,-0.0047303,-0.081025,-0.020905,0.092927,0.2208,0.035248
-0.049592,-0.00076295,-0.042573,-0.089265,0.019074,-0.011139,0.11398,-0.0047303
-0.029145,-0.065766,-0.005951,-0.072175,0.055695,-0.1442,-0.19486,0.019074
0.039521,-0.14206,-0.00076295,-0.002594,0.025788,-0.037385,-0.40635,0.069734
0.056001,-0.1387,-0.026398,-0.036164,0.024262,0.10483,0.23423,-0.047761
0.057221,-0.11582,-0.036774,-0.12711,0.052033,-0.016938,-0.14328,-0.088045
0.035554,-0.068208,-0.037995,-0.041352,0.027924,0.040436,-0.034333,-0.092927
0.039521,-0.036164,-0.040131,0.035554,0.02884,0.050202,0.11704,-0.0795
0.02945,-0.060578,-0.030671,-0.095674,0.029145,0.019989,0.070039,-0.050507
-0.031281,-0.037385,-0.080415,-0.18021,0.062409,-0.049287,-0.0047303,-0.050507
-0.041962,-0.0206,-0.059968,-0.067597,0.076143,-0.073701,-0.15854,-0.021515
-0.08072,0.012055,-0.087129,-0.060883,-0.0022889,-0.0077821,-0.062715,-0.038911
-0.051118,-0.042573,-0.11826,-0.095369,-0.019379,-0.035859,-0.046845,0.0013733
-0.060578,-0.016327,-0.12528,-0.1387,-0.044404,-0.022126,-0.0071717,0.052949
-0.067597,0.054475,-0.10086,-0.016632,-0.061189,-0.013581,-0.0062562,0.068513
-0.10941,0.15763,-0.11307,-0.20371,-0.054475,0.0086976,-0.0080873,0.12284
-0.11368,0.077668,-0.062409,-0.13382,-0.036774,0.0077821,0.050507,0.16068
-0.096895,-0.014496,-0.04715,-0.070649,-0.04654,0.027314,0.13626,0.16434
-0.052033,-0.071565,-0.030365,-0.04715,-0.025177,0.12467,0.17655,0.12009
-0.002594,-0.098116,-0.0206,-0.005951,-0.014496,0.13382,0.32975,0.082551
0.065156,-0.19425,0.026398,0.017853,0.016022,0.04654,0.22324,-0.032502
0.073701,-0.14786,-0.026093,-0.11521,0.057527,-0.033112,-0.3032,-0.077668
0.045624,-0.073701,-0.0047303,-0.11398,0.092317,-0.12161,-0.58305,-0.14542
0.024262,-0.1503,0.076753,-0.038605,0.082246,0.049592,0.11368,-0.1445
0.012055,-0.099947,-0.041962,-0.023651,0.033722,0.13931,0.56626,-0.069429
-0.058137,0.034028,-0.10361,-0.062715,0.053864,0.022126,0.31815,0.030976
-0.061799,0.068513,-0.10147,-0.048371,0.020905,-0.019989,-0.013581,0.043183
-0.066072,0.065766,-0.10452,-0.005951,-0.0028992,-0.061799,-0.55802,0.017548
-0.084993,0.032502,-0.13138,-0.11185,0.028229,-0.043488,-0.36057,0.016022
-0.066072,-0.040742,-0.16556,-0.14389,-0.011139,-0.015412,-0.41855,0.010529
-0.0972,-0.088045,-0.066377,-0.1384,-0.096895,0.10788,-0.048676,-0.042878
-0.01297,-0.11673,-0.042267,-0.087129,-0.08896,0.1326,0.43748,0.06302
-0.021515,-0.042573,-0.0795,-0.16129,-0.013581,-0.05417,0.081331,0.065766
-0.01236,0.036164,-0.055085,-0.057527,0.027924,-0.12192,0.09781,0.046235
-0.020905,0.047456,-0.07187,0.0016785,-0.0047303,-0.015412,0.37552,0.090181
-0.052033,-0.024567,-0.0099184,-0.23728,0.018158,0.03006,0.35325,0.092622
0.010529,-0.10025,-0.0083925,-0.034943,0.070649,0.013275,0.27817,0.16159
0.06363,-0.017548,-0.0056458,-0.096895,0.015717,0.073701,0.19944,-0.017548
0.037079,-0.026703,-0.0028992,0.077974,0.048066,-0.093843,-1.0369,-0.17166
0.0047303,-0.099641,-0.044404,0.012055,0.056001,-0.042878,-0.42954,-0.084077
-0.022431,-0.059358,-0.023651,-0.060578,0.070649,-0.005951,0.54398,-0.059052
-0.033112,-0.073396,-0.048066,-0.035248,0.01297,0.0090028,0.17441,-0.073701
-0.099641,0.049592,-0.069429,-0.1265,0.041962,-0.018769,-0.68406,-0.13199
-0.058137,-0.0099184,-0.052949,-0.091707,-0.009308,0.033112,-0.38407,-0.035248
-0.030671,-0.22629,0.015412,-0.11551,-0.019074,0.086824,0.46769,0.017853
-0.024262,-0.10086,-0.14298,-0.082551,0.0071717,0.064546,0.25162,0.042267
-0.075532,0.15335,-0.16648,-0.092317,-0.023346,0.002594,0.12375,0.08835
-0.10239,0.1326,-0.11978,-0.089876,-0.059052,0.00045777,0.067903,0.088655
-0.10788,0.12589,-0.11734,-0.12375,-0.033417,0.018158,0.081331,0.12802
-0.053864,0.013275,-0.062409,-0.14359,0.024262,0.038605,0.10208,0.13657
-0.013275,-0.084077,-0.022736,-0.10117,-0.041352,0.033417,0.053254,0.0795
0.010529,-0.19638,-0.017548,-0.06302,-0.069734,0.038605,0.048981,0.0099184
0.029145,-0.15579,-0.036164,-0.05478,-0.030365,0.046845,0.024262,-0.041352
0.04593,-0.10452,-0.017548,-0.033112,0.019989,0.005951,-0.040436,-0.047761
0.032197,-0.097505,-0.01236,-0.011139,0.053559,-0.0383,-0.085908,-0.056001
0.046235,-0.11673,-0.0099184,-0.040131,0.030976,-0.041657,-0.072175,-0.095064
0.05417,-0.092012,-0.023041,-0.091096,0.02182,-0.029755,0.0096132,-0.045624
0.037385,-0.08072,-0.014496,-0.005951,0.056916,0.016022,0.052949,-0.068818
0.042267,-0.027924,-0.07126,-0.043488,0.1207,-0.0035096,0.032197,-0.060883
0.019379,0.05417,-0.067292,-0.070649,0.087434,-0.032197,-0.017243,-0.064851
-0.087739,0.025788,-0.13474,-0.13504,0.034028,-0.039826,-0.10819,-0.06363
-0.12406,0.07248,-0.11612,-0.22782,-0.0053407,0.0041199,-0.0083925,-0.031891
-0.13046,0.07187,-0.092622,-0.1207,-0.041962,0.095674,0.18784,0.062409
-0.12589,0.10056,-0.1149,-0.091096,-0.056611,0.058747,0.098726,0.11978
-0.15366,0.090181,-0.092012,-0.076753,-0.04654,-0.037079,-0.032502,0.10697
-0.15976,0.052033,-0.052949,-0.082551,-0.022126,0.00015259,0.0019837,0.16342
-0.082856,-0.1564,-0.014496,-0.077058,-0.018158,0.014496,-0.048371,0.1854
-0.089876,-0.15274,-0.053864,-0.066682,-0.030671,0.010529,0.02121,0.057832
-0.083467,-0.011749,-0.046845,-0.052644,-0.034638,0.038911,0.095979,0.0053407
0.0099184,-0.051423,-0.018769,-0.028229,-0.027619,0.051423,0.11612,0.049592
0.067903,-0.076448,-0.012055,-0.047456,0.011139,0.026703,-0.056001,-0.022126
0.10636,-0.094759,-0.0099184,-0.040436,0.042878,0.026398,-0.11215,-0.027314
0.15518,-0.12192,-0.045014,-0.038605,0.067903,0.018158,0.021515,-0.050813
0.14847,-0.12619,-0.012665,-0.066377,0.093233,-0.031586,0.056611,-0.087129
0.11521,-0.22873,-0.005951,-0.049592,0.070649,0.018158,-0.00015259,-0.10788
0.035248,-0.17777,-0.074922,-0.083467,0.08011,-0.020294,-0.11765,-0.12985
-0.045624,0.023346,-0.1091,-0.077363,0.07187,-0.019989,0.081941,-0.15213
-0.056001,0.07126,-0.1149,-0.058747,-0.025177,0.066377,0.1445,-0.10636
-0.1033,0.030365,-0.041047,-0.098726,-0.018463,-0.034943,-0.15457,-0.048371
-0.085908,0.022736,-0.0795,-0.040131,-0.016327,-0.084382,-0.33555,0.049897
-0.073701,0.12009,-0.15549,-0.16098,-0.012665,-0.031586,-0.11429,0.15305
-0.11002,0.056001,-0.11551,-0.14054,0.0053407,0.0053407,0.15885,0.17685
-0.13352,0.062409,-0.092927,-0.099947,-0.065156,0.031281,0.091402,0.19699
-0.11521,-0.033722,0.0053407,-0.069123,-0.064851,0.021515,0.19364,0.22416
-0.08072,-0.070954,-0.03006,-0.072786,-0.037079,-0.060273,0.12894,0.14237
-0.032502,-0.009308,-0.037079,-0.055085,-0.02884,0.019074,0.018158,0.039521
0.0010681,-0.060273,-0.012055,-0.052949,-0.010834,0.059358,-0.038605,-0.014496
0.0086976,-0.12039,-0.025483,-0.04715,0.027314,0.08957,0.21653,-0.015717
0.039826,-0.14145,0.0096132,-0.041352,0.055695,0.033417,-0.22141,-0.013581
0.03769,-0.13779,-0.024872,-0.021515,0.033722,0.0383,-0.27787,-0.049897
0.02945,-0.081941,-0.060273,-0.040436,0.042267,0.030671,0.23209,-0.07126
0.0383,-0.029755,-0.052033,-0.075837,0.07187,-0.042267,0.04654,-0.081025
-0.026398,0.015412,-0.074617,-0.085908,0.080415,-0.045014,-0.034638,-0.11856
-0.029755,-0.013581,-0.084688,-0.077058,0.025483,0.068818,0.12192,-0.092012
-0.069123,0.0038148,-0.10849,-0.1796,-0.0086976,0.069123,0.19303,-0.059968
-0.0795,-0.0035096,-0.093233,-0.083467,-0.009308,-0.0090028,0.041962,-0.023041
-0.075532,0.012665,-0.091096,-0.038911,-0.026703,-0.075227,-0.27481,0.10819
-0.07187,0.0972,-0.089265,-0.070344,-0.012665,-0.080415,-0.2388,0.0795
-0.077974,0.061189,-0.086519,-0.10147,-0.025177,0.0053407,0.011749,0.032197
-0.099031,0.036469,-0.099031,-0.10971,-0.034943,-0.022126,0.044404,0.02121
-0.066072,-0.018463,-0.04654,-0.1265,-0.051423,0.0032044,-0.12039,0.070344
-0.0032044,-0.098726,-0.020294,-0.19425,-0.046845,0.11063,0.26383,0.13107
0.02121,-0.1268,0.0080873,-0.082551,0.0068666,0.026093,0.103,0.045014
0.0096132,-0.10178,-0.005951,0.042573,0.019379,0.016022,-0.0022889,0.0086976
0.03006,-0.13138,-0.016938,-0.014496,0.048371,0.022736,0.20859,-0.025788
0.041352,-0.14237,0.0047303,-0.02945,0.067597,0.022126,0.33036,-0.024262
0.056611,-0.13352,-0.032502,-0.041352,0.067292,-0.0074769,0.16709,-0.056611
0.04593,-0.090486,-0.037995,-0.051728,0.073091,-0.079805,-0.58061,-0.11948
0.0086976,-0.07248,-0.06424,-0.074311,0.056306,-0.023041,-0.084382,-0.061799
-0.033112,0.027314,-0.095064,-0.076448,0.020905,0.0022889,-0.11643,-0.08957
-0.013581,0.065461,-0.11215,-0.097505,-0.009308,0.034943,-0.75242,-0.069429
-0.014496,0.027314,-0.081025,-0.077058,-0.039826,0.10849,0.29465,0.043488
-0.039521,0.051728,-0.121,-0.080415,-0.028229,0.022736,0.17227,-0.016632
-0.10178,0.1033,-0.11551,-0.1207,0.025177,-0.11612,-0.040742,-0.016327
-0.12467,0.098726,-0.092927,-0.091402,-0.019074,-0.02884,0.15152,0.082551
-0.093538,0.054475,-0.096284,-0.096895,-0.053254,0.025483,0.14786,0.18357
-0.099031,-0.08957,-0.055695,-0.094453,-0.022126,0.0022889,0.032807,0.1387
-0.044404,-0.22354,-0.044099,-0.08957,-0.040436,0.0206,-0.033722,0.081941
-0.029145,-0.10208,-0.002594,-0.08957,-0.045014,0.073396,0.061189,0.042878
-0.039216,-0.094759,0.041047,-0.040131,-0.015412,0.089265,0.078279,0.014801
-0.032502,-0.19547,-0.017548,0.0047303,0.039826,0.015412,-0.044709,0.0068666
-0.02945,-0.098116,-0.083467,-0.1149,0.11002,-0.12863,0.00045777,0.025483
0.0068666,0.033722,-0.066377,-0.29801,0.016632,0.051118,0.39048,0.077668
0.022126,0.059663,-0.024872,-0.025177,0.027619,0.099031,0.22568,0.033722
0.041047,-0.12863,0.08011,0.14847,0.054475,0.015412,-0.12589,-0.028534
0.099947,-0.16434,-0.01297,-0.14328,0.052949,0.01236,-0.13931,-0.093843
0.018769,-0.0096132,-0.11154,0.027314,0.036774,0.12924,0.19547,-0.16861
-0.081025,0.056001,-0.13779,-0.077668,0.055695,-0.039216,-0.0068666,-0.14328
-0.099336,0.048676,-0.12467,-0.11643,0.029755,-0.07126,-0.19486,-0.027314
-0.055085,-0.030671,-0.098116,-0.11063,-0.045624,-0.0010681,-0.077974,0.022736
-0.045014,0.0047303,-0.10056,-0.20798,-0.040436,-0.02884,-0.073701,0.033722
-0.032807,0.022736,-0.070344,0.28214,-0.031281,-0.025483,0.00045777,0.050202
-0.06363,0.060273,-0.087434,-0.26719,0.014801,-0.048981,-0.027008,0.047456
-0.065766,0.05417,-0.091096,-0.15396,-0.04715,-0.0074769,-0.01236,0.063935
-0.052644,0.027619,-0.070649,-0.10452,-0.066072,0.030976,-0.014801,0.073701
-0.014496,-0.031891,-0.034943,-0.10971,0.065156,0.021515,-0.012665,0.056306
0.0032044,-0.090791,0.015717,0.00076295,0.010834,-0.0041199,-0.0019837,0.058442
-0.00015259,-0.10361,-0.00076295,0.005951,0.018158,-0.037079,0.090181,0.030365
0.011749,-0.11856,-0.0080873,-0.067597,0.048066,0.067597,0.17258,0.0010681
0.015717,-0.11032,-0.020294,-0.10147,0.0383,0.091096,0.017548,-0.02121
0.0077821,-0.11398,-0.02884,-0.12589,0.081941,0.013886,-0.0090028,-0.047761
0.017243,-0.085908,-0.059358,-0.062409,0.069123,0.0083925,-0.036774,-0.040742
0.0065614,-0.062715,-0.073396,-0.042573,-0.0065614,0.038911,-0.02884,-0.025177
-0.01297,-0.027619,-0.092622,-0.059663,-0.015106,0.020905,0.039826,-0.04654
-0.066072,0.019379,-0.078279,0.0050355,-0.030671,0.0053407,0.070039,-0.041962
-0.095674,0.029145,-0.05417,-0.15793,-0.036774,0.0013733,0.17838,-0.060883
-0.12863,0.076753,-0.13504,-0.11856,-0.07187,0.02884,0.13474,0.014801
-0.1442,0.076143,-0.12253,-0.18387,-0.043793,-0.050202,-0.27878,0.091707
-0.14084,0.057221,-0.10056,-0.16403,0.085603,-0.04593,0.072786,0.1561
-0.10422,-0.00045777,-0.084688,-0.10269,-0.0068666,0.079194,0.33097,0.1735
-0.048371,-0.11185,-0.0083925,-0.0096132,-0.093233,0.01297,-0.26963,0.16526
0.022736,-0.08072,-0.030671,0.024872,-0.017548,-0.052033,-0.35874,0.11917
0.0041199,0.0032044,-0.023957,-0.037079,-0.0068666,0.023041,0.37095,-0.036469
0.035554,0.064546,-0.0062562,-0.08957,-0.0047303,-0.0032044,0.12314,-0.035554
0.054475,-0.0016785,-0.014496,-0.077668,0.089876,-0.0041199,-0.20859,-0.047761
0.099641,-0.046845,-0.014191,-0.051728,0.13565,-0.01297,-0.22934,-0.034333
0.092927,-0.30167,-0.013581,-0.043488,0.057832,0.014496,0.074006,-0.067903
0.085603,-0.32273,-0.010834,-0.081025,0.015412,0.043183,0.19547,-0.11154
0.051423,-0.14298,-0.10513,-0.033417,0.03769,0.082246,0.42466,-0.094148
0.02945,-0.10636,-0.096895,-0.0383,0.048981,0.043488,0.38743,-0.06302
-0.0080873,-0.054475,0.0074769,-0.065766,0.059052,-0.11582,-0.11643,-0.03769
-0.066987,-0.01236,-0.093233,-0.10666,0.058442,-0.14664,-0.56596,-0.045014
-0.15,0.1207,-0.14481,-0.11765,0.0086976,-0.049592,-0.72801,-0.08011
-0.16587,0.17075,-0.12253,-0.15579,-0.047761,0.013275,-0.33371,0.023346
-0.13779,0.11521,-0.098116,-0.11154,-0.10208,0.12314,0.44785,0.13413
-0.10513,0.06363,-0.069429,-0.10147,-0.098116,0.073091,0.31601,0.11002
-0.099641,0.048676,-0.087129,-0.096895,-0.059968,0.066377,0.16251,0.10758
-0.042878,-0.0062562,-0.074617,-0.06363,-0.02945,0.0383,-0.22171,0.14054
-0.0022889,-0.08072,-0.015412,-0.056611,0.018158,0.0044251,0.1915,0.16403
0.029145,-0.1738,0.069734,-0.0062562,0.035248,0.019074,0.52476,0.010834
0.035248,-0.14206,-0.026703,-0.044404,0.021515,0.07248,0.16251,-0.11643
0.022736,-0.07187,-0.019074,-0.053254,0.025177,0.069123,-0.80125,-0.13779
0.00076295,-0.091402,-0.052644,-0.052338,0.038911,0.0086976,-0.39658,-0.026703
0.02945,-0.13413,-0.034638,-0.13077,0.070344,-0.042267,0.4802,0.058137
0.014801,-0.051423,-0.080415,-0.14206,0.088655,-0.093233,0.30961,0.002594
-0.0056458,-0.0022889,-0.067903,0.20951,0.05539,-0.086213,-0.028534,-0.030671
-0.022736,-0.10941,-0.03006,-0.25498,0.023957,-0.043183,-0.3508,-0.0090028
-0.053559,-0.1146,-0.061189,-0.10452,-0.023651,0.057221,-0.04715,-0.0013733
-0.069734,0.082246,-0.066987,-0.047456,-0.026703,0.038911,0.10056,-0.028534
-0.087434,0.14237,-0.12314,-0.084993,-0.0032044,0.019989,0.08957,-0.0062562
-0.093233,0.099336,-0.13962,-0.0795,-0.012055,0.0071717,0.08957,-0.0086976
-0.11307,0.081636,-0.11337,-0.11978,-0.0090028,0.0028992,0.12039,0.02182
-0.035248,0.048676,-0.056916,-0.086824,-0.041352,0.062104,-0.043793,0.097505
-0.017548,-0.074006,-0.02182,-0.092317,-0.043488,0.046235,0.012665,0.066682
-0.023346,-0.14023,-0.052644,-0.086519,-0.016632,0.0028992,0.11032,0.077363
-0.034943,-0.043488,-0.04593,-0.18265,-0.030671,0.015106,0.046235,0.051118
0.023651,-0.088655,-0.00045777,0.049592,-0.014496,-0.012665,-0.00015259,0.027314
0.018158,-0.12161,0.0041199,0.0013733,0.010834,0.030365,0.13016,-0.0010681
0.0096132,-0.16464,-0.022126,-0.12497,0.070649,-0.01297,-0.13138,-0.069123
0.022126,-0.15427,0.005951,0.12009,0.02945,-0.034028,-0.2327,-0.033722
0.063325,-0.12436,-0.026398,0.00076295,0.078584,0.0065614,0.065156,-0.043793
0.058442,-0.070039,-0.019684,-0.20188,0.029145,0.13687,0.31601,-0.077058
-0.043183,0.058137,-0.10147,-0.14908,0.057832,0.013886,0.021515,-0.061799
-0.061494,0.053254,-0.11246,-0.103,0.15824,-0.061799,-0.066987,0.015717
-0.081636,0.034333,-0.11948,-0.12253,0.086824,-0.024872,-0.016327,0.074006
-0.078279,0.065766,-0.11612,-0.041657,-0.038605,0.0044251,0.0032044,0.035554
-0.081941,0.039521,-0.10117,-0.15061,-0.077668,0.0022889,0.016632,0.033417
-0.11429,0.077668,-0.10025,-0.17472,-0.051423,-0.005951,0.009308,-0.011444
-0.10239,0.044404,-0.077974,-0.096284,-0.084993,0.033417,0.018769,0.0086976
-0.059052,-0.023957,-0.044099,-0.040742,-0.099031,0.081331,0.099947,0.067597
-0.036774,-0.040742,-0.070344,-0.076448,-0.053864,0.025177,0.06363,0.091707
-0.0068666,-0.067903,-0.04654,-0.062715,-0.0096132,0.0062562,0.081636,0.1384
0.028229,-0.12741,0.017243,-0.015412,0.025177,-0.06363,-0.2858,0.11398
0.02945,-0.14786,0.050202,-0.030976,0.029755,-0.067903,-0.21012,0.032197
0.06424,-0.10147,-0.04593,0.0050355,0.018158,0.034638,0.30442,0.034028
0.033112,-0.045319,-0.048676,0.0068666,0.13596,0.010529,0.14328,-0.0795
0.0016785,-0.066987,-0.015717,-0.092927,0.19852,0.016327,0.011749,-0.10544
0.012665,-0.12039,-0.023957,-0.1735,0.038911,0.016632,-0.23362,-0.096895
0.0071717,-0.084077,-0.0383,-0.085908,-0.022431,-0.026093,-0.39658,-0.10452
0.005951,-0.042573,-0.074311,-0.06424,0.0056458,0.04715,0.16678,-0.051423
-0.07126,0.012055,-0.12039,-0.099336,0.00076295,0.031586,0.15152,-0.016327
-0.11551,0.04654,-0.14298,-0.11185,-0.015412,0.034943,0.10086,0.045014
-0.1207,0.045319,-0.11246,-0.09781,-0.042573,0.034638,0.051728,0.10605
-0.11948,0.051118,-0.063935,-0.083772,-0.049592,0.016022,-0.002594,0.030365
-0.10239,0.0206,-0.060578,-0.069123,-0.023041,-0.034333,0.094148,0.028229
-0.11582,0.050202,-0.10697,-0.064851,0.011444,-0.081941,0.025483,0.093538
-0.084077,0.027924,-0.090181,-0.088655,-0.055695,0.043183,-0.12345,0.09781
-0.027008,-0.021515,-0.051728,-0.12924,-0.08957,0.062409,-0.077974,0.15305
0.028229,-0.068513,-0.049287,-0.087434,-0.013275,0.06424,0.18631,0.11795
0.041657,-0.18265,0.020905,-0.085298,0.074311,0.073091,0.12222,0.038911
0.06424,-0.14237,0.009308,0.023346,0.053559,0.065461,0.094453,-0.0065614
0.011139,0.0086976,-0.039826,-0.027619,0.025483,0.027008,0.042267,-0.076753
0.052033,-0.052033,-0.018158,-0.099031,0.035859,0.026093,-0.0090028,-0.091402
0.0086976,-0.033722,-0.032807,-0.069734,0.051728,-0.0010681,0.07126,-0.098421
0.015412,-0.05478,-0.037079,-0.06302,0.06363,-0.016022,0.25315,-0.085298
0.0096132,-0.086213,-0.03769,-0.068818,0.044404,-0.014801,0.23941,-0.019684
0.026093,-0.15457,-0.041657,-0.065156,0.05417,-0.06363,-0.45243,-0.048981
-0.0050355,-0.033417,-0.13993,-0.053559,0.038911,-0.041352,-0.86656,-0.12711
-0.066072,0.019074,-0.064546,-0.086824,-0.0086976,0.029145,0.215,-0.0086976
-0.02945,-0.099947,-0.0038148,-0.10483,-0.04593,0.10483,0.54887,0.011749
-0.083772,-0.062104,-0.077058,-0.060578,-0.015106,-0.011139,0.54398,-0.051728
-0.08896,0.0077821,-0.12711,-0.071565,-0.00076295,-0.10361,0.0056458,-0.013581
-0.081941,0.084382,-0.14084,-0.11337,-0.040742,-0.005951,-0.65568,0.090791
-0.050507,0.053559,-0.10758,-0.065766,-0.037079,-0.082246,-0.78874,0.14115
-0.11643,0.11551,-0.093233,-0.11734,-0.0047303,0.031586,0.39841,0.168
-0.084382,0.014191,-0.010529,-0.13657,0.042878,-0.0041199,0.053254,0.15793
0.011139,-0.1146,0.047456,-0.10361,-0.0056458,-0.032807,-0.33616,0.094148
0.060273,-0.1442,0.049592,0.18418,0.0041199,0.071565,0.40146,-0.059358
0.066682,-0.14267,-0.034028,-0.25925,0.059358,0.04715,0.0038148,-0.13169
0.055085,-0.13993,-0.025788,0.023041,0.027619,0.090791,-0.027314,-0.073396
0.058137,0.033112,-0.059968,0.019989,0.039216,0.039216,0.089265,-0.024872
0.068208,-0.10971,-0.057832,-0.0071717,0.082246,-0.014191,0.1088,-0.067903
0.066377,-0.27543,-0.060883,-0.082856,0.040131,-0.047761,0.056306,-0.12711
-0.0032044,-0.10971,-0.052949,-0.103,0.0016785,-0.011139,-0.0080873,-0.10544
-0.12009,0.17411,-0.1564,-0.16007,0.05417,0.048676,0.050507,-0.022126
-0.12131,0.098421,-0.098116,-0.13962,0.052033,0.013275,0.027924,0.095369
-0.11368,0.08011,-0.067903,-0.098726,-0.041352,-0.0028992,0.04593,0.10239
-0.14572,0.099336,-0.10239,-0.092927,-0.053254,0.0068666,0.085908,0.058137
-0.15091,0.10025,-0.13382,-0.13565,-0.056916,0.039521,0.076753,0.12039
-0.14084,0.049592,-0.098726,-0.11978,-0.060883,0.048066,0.051728,0.16648
-0.10391,0.00045777,-0.052949,-0.16861,-0.086213,0.09659,0.10605,0.16648
-0.05478,-0.052338,0.0062562,0.019989,-0.066987,0.043183,0.090486,0.15122
-0.010834,-0.16678,0.040131,0.089876,-0.0032044,-0.056001,-0.039521,0.095979
0.027314,-0.2739,0.049897,-0.053559,0.11093,-0.10056,-0.045624,0.037079
0.040131,-0.1735,-0.019684,-0.23117,0.038911,0.11063,0.14542,-0.036469
0.02121,0.017853,-0.062409,-0.087434,0.034333,0.075532,0.10971,-0.095064
0.049592,0.033722,-0.050202,-0.0206,0.027008,0.039216,0.04654,-0.081331
0.048066,0.056306,-0.052949,-0.019684,0.039216,0.026398,0.0086976,-0.13535
0.034028,-0.059663,-0.067292,-0.026703,0.037385,-0.032197,-0.2153,-0.1561
-0.012665,-0.0035096,-0.10605,-0.048676,0.053559,-0.062104,-0.34226,-0.1323
-0.031891,-0.039826,-0.070344,-0.075227,0.066682,-0.058442,0.11185,-0.028534
-0.042878,-0.16739,-0.12314,-0.090486,0.031281,-0.066377,0.043793,-0.020294
-0.040436,-0.034638,-0.086213,-0.103,-0.0022889,-0.0056458,0.15488,-0.01297
-0.04654,-0.042267,-0.026703,-0.1268,-0.014496,0.049287,0.084688,0.013886
-0.011444,-0.08957,-0.040436,-0.084382,-0.059968,0.011139,-0.18051,0.057527
-0.084993,0.11856,-0.081941,-0.093538,-0.02121,-0.032197,-0.2504,0.11826
-0.065766,0.12863,-0.098726,-0.068818,0.0053407,-0.017853,0.13931,0.121
-0.038605,0.028534,-0.085298,-0.087739,-0.028534,0.0038148,0.049287,0.14939
-0.028229,-0.12436,-0.024567,-0.084688,-0.0096132,0.013275,0.024872,0.12924
0.017243,-0.12863,-0.019074,-0.041047,-0.029755,0.05417,0.066682,0.070344
0.018769,-0.057527,-0.030976,-0.042573,-0.0010681,0.034943,0.04593,-0.02884
0.04593,-0.088655,-0.012055,-0.030365,0.044099,0.020905,0.11643,-0.074617
0.01297,-0.099641,-0.013886,-0.038605,0.076753,0.015412,-0.061494,-0.11215
-0.0068666,-0.091707,-0.018158,-0.060883,0.072175,0.011444,0.10452,-0.12772
0.0065614,-0.08957,-0.056001,-0.035248,0.030365,0.047456,0.12894,-0.10758
-0.041352,-0.03006,-0.093538,-0.0080873,0.035554,0.010224,-0.18326,-0.10544
-0.093538,0.081941,-0.078889,-0.11978,0.034943,-0.049287,-0.36881,-0.044404
-0.11521,0.085298,-0.094453,-0.25925,-0.002594,0.024567,-0.026398,0.055695
-0.11612,0.040131,-0.077058,-0.1146,-0.024262,0.087434,0.27756,0.1088
-0.11582,0.03006,-0.081941,-0.085603,-0.075837,0.056916,0.18112,0.17685
-0.086824,0.048371,-0.11673,-0.084382,-0.042573,-0.019379,0.072786,0.15885
-0.061799,0.05539,-0.10758,-0.10636,0.0065614,-0.065156,-0.05539,0.073396
-0.054475,0.037995,-0.072786,-0.10544,-0.035248,0.091707,0.14908,0.01297
0.017243,-0.15244,-0.037995,-0.069734,-0.072786,0.14115,0.56229,0.043793
0.029755,-0.14054,-0.035859,-0.055085,-0.022126,0.0041199,0.24002,0.10422
-0.00076295,-0.10178,-0.016327,-0.051728,0.066682,-0.23667,-0.46525,0.048371
0.041962,-0.1384,0.015717,0.014801,0.057221,-0.12985,-0.94957,0.0071717
0.02121,-0.10666,-0.055085,-0.050507,0.009308,0.12192,-0.063935,0.021515
0.043488,-0.19547,0.0071717,-0.035554,0.053254,0.049592,0.51499,-0.026398
0.022126,-0.059663,-0.0016785,0.027008,0.039216,0.048676,0.10208,-0.090791
-0.014191,-0.0028992,-0.022431,-0.056306,0.093538,-0.022126,-0.002594,-0.18814
-0.038605,0.048676,-0.075837,-0.13779,0.11246,-0.12284,-0.29831,-0.08957
-0.02884,0.085603,-0.099031,-0.16587,0.048981,0.050813,-0.2031,-0.028229
0.019074,-0.18936,-0.0795,-0.14481,-0.009308,0.073091,0.039826,0.057832
-0.022126,-0.062409,-0.13901,-0.076448,-0.0086976,-0.0016785,0.093843,0.067292
-0.028229,0.039216,-0.056306,-0.050507,-0.027619,0.01236,0.19059,-0.018463
-0.052033,0.031586,-0.085298,-0.11551,-0.059358,0.010529,0.28519,0.027008
-0.081636,0.084077,-0.091096,-0.10269,-0.0056458,-0.0013733,0.36851,0.081331
-0.076143,0.034333,-0.07126,-0.12955,0.028229,0.020905,0.20584,0.078584
-0.033722,-0.062104,-0.085298,-0.088655,-0.0028992,-0.025177,-0.76982,0.016632
-0.057832,-0.012055,-0.062715,-0.074922,-0.041047,-0.043183,-0.50492,0.0080873
-0.057527,0.014191,-0.053864,-0.058442,-0.045624,0.056306,0.3328,0.056001
-0.012055,-0.057832,-0.00045777,-0.03769,-0.027619,0.071565,0.1442,0.066682
0.025788,-0.086213,0.024872,-0.0090028,0.0090028,0.038605,0.08072,0.0099184
0.024262,-0.069429,-0.032502,-0.021515,0.019379,0.020294,0.051728,-0.059052
0.024262,-0.089876,-0.033112,-0.042573,0.039216,0.010529,0.17319,-0.099031
0.019989,-0.083467,-0.025788,-0.056306,0.079194,0.048371,0.18631,-0.085603
0.023651,-0.083772,-0.038605,-0.047761,0.088655,0.034333,-0.070039,-0.059358
0.0010681,-0.070344,-0.063325,-0.092927,0.084077,0.002594,-0.24949,-0.041047
-0.04593,-0.061494,-0.058747,-0.10452,0.030976,0.032502,0.05539,-0.025788
-0.037385,-0.11093,-0.055695,-0.11948,-0.035248,-0.0028992,0.19181,0.049897
-0.081941,-0.048981,-0.1088,-0.22202,-0.0074769,-0.071565,-0.41398,0.0065614
-0.12009,0.13535,-0.13443,-0.014801,0.0071717,0.00045777,-0.10147,-0.0013733
-0.103,0.1564,-0.14359,0.019074,-0.031586,0.02884,0.24277,0.042267
-0.074617,0.077363,-0.091402,-0.26444,-0.052949,0.0028992,0.093538,0.059052
-0.091402,0.034028,-0.041962,-0.08072,-0.083162,-0.037995,-0.15366,0.11429
-0.012055,-0.16281,0.017548,-0.030976,-0.031586,-0.044404,0.034028,0.14633
-0.01236,-0.18357,-0.041047,-0.045624,0.02945,-0.018158,0.31235,0.035859
-0.061189,-0.01236,-0.073396,-0.0795,0.019989,0.035248,0.18265,-0.041657
-0.002594,-0.038605,-0.035554,0.068208,-0.019379,0.067597,-0.077363,0.076448
0.0013733,-0.0086976,-0.028229,-0.11734,0.017243,0.014191,-0.035248,0.071565
0.0016785,-0.016938,-0.028534,-0.12558,0.09659,-0.0074769,-0.023346,0.0010681
0.0032044,-0.036469,-0.046845,-0.11673,0.044404,0.083772,0.039216,-0.020905
0.039521,-0.052033,-0.033722,-0.081331,0.027314,0.091402,0.060578,-0.043793
0.048066,-0.13138,-0.026093,0.14054,0.014801,0.076448,0.15244,-0.051423
0.0077821,-0.083467,-0.041657,-0.17594,0.094759,-0.019074,0.10483,-0.083772
0.015412,-0.069734,-0.056611,-0.073091,0.00045777,0.024262,-0.025483,-0.08957
-0.020905,-0.046235,-0.084688,-0.082856,0.009308,-0.053254,-0.37888,-0.11154
-0.053559,-0.044099,-0.12436,-0.077363,0.040131,-0.074006,-0.35447,-0.088045
-0.027314,0.012055,-0.15061,-0.10147,-0.013581,-0.015412,0.19028,0.026093
-0.085908,0.078584,-0.11978,-0.13657,-0.011139,-0.041657,0.11917,0.042878
-0.072786,-0.0206,-0.08835,-0.14786,-0.0383,0.027924,0.16556,0.089876
-0.13382,0.081636,-0.082856,-0.1268,-0.069123,0.033417,-0.087739,0.098116
-0.091402,0.042573,-0.059358,-0.076448,-0.059663,-0.052033,-0.30747,0.1326
-0.040742,0.067597,-0.016327,-0.089265,-0.0028992,-0.049897,0.034028,0.16953
-0.053254,0.056001,-0.058747,-0.064851,0.002594,0.061494,0.20371,0.075837
-0.049897,-0.1442,0.027924,-0.063325,-0.015412,0.11917,0.10239,0.066377
-0.00045777,-0.1854,-0.0096132,-0.005951,0.021515,0.043488,0.075227,0.067292
0.024872,-0.20981,-0.00015259,-0.024262,0.045319,-0.025177,0.018769,-0.035248
0.033722,-0.15366,0.10208,0.023651,0.059052,0.0086976,-0.025483,-0.048981
0.06363,-0.090181,0.0035096,0.025788,0.087739,0.043488,-0.0035096,-0.063325
0.085908,-0.053559,-0.081331,-0.079805,0.089876,0.036164,0.40909,-0.029145
0.019684,0.094759,-0.1149,-0.1384,0.065766,0.019989,0.41367,-0.04593
0.019989,-0.075837,-0.13687,-0.11887,0.0013733,0.054475,0.043793,-0.0022889
0.033112,-0.11612,-0.11215,-0.090791,-0.013581,-0.013275,-0.95628,-0.056611
-0.071565,-0.0383,-0.059968,-0.048981,0.014801,-0.064546,-0.63737,-0.12436
-0.070039,0.040131,-0.058137,-0.042267,0.0035096,-0.046235,0.28977,0.023957
-0.09781,0.10239,-0.1796,-0.121,-0.015412,-0.024872,0.215,0.038911
-0.11215,0.094148,-0.12253,-0.14878,-0.057832,0.02121,0.23789,0.034333
-0.093538,0.031281,-0.095979,-0.13291,-0.079805,-0.013886,-0.032502,0.095674
-0.083467,0.022126,-0.015412,-0.12741,-0.027008,0.0013733,-0.12802,0.092317
-0.042878,-0.042573,-0.020294,-0.083162,0.032807,0.024567,-0.039826,0.13321
-0.033417,-0.053559,0.021515,-0.043488,0.036164,0.031586,0.15732,0.08957
-0.0071717,-0.092317,-0.022431,-0.052338,0.0071717,0.037995,0.14908,0.0013733
-0.017548,-0.08011,-0.041657,-0.06424,0.027619,-0.014801,-0.018158,-0.062715
-0.002594,-0.075532,-0.025788,-0.084993,0.041962,-0.0096132,0.076448,-0.075532
0.035859,-0.087434,-0.011444,-0.081331,-0.016632,0.15213,0.2623,-0.069123
0.061494,-0.25834,0.0022889,-0.043488,0.017243,0.028534,-0.44236,-0.11978
-0.010834,-0.15244,-0.085908,-0.049592,0.053864,0.005951,-0.12863,-0.084077
-0.04654,0.10452,-0.11276,0.0050355,0.031586,0.020905,0.26566,-0.019684
0.0032044,0.01236,-0.05417,-0.032197,0.0016785,0.072175,0.41947,0.11978
0.045014,-0.079805,-0.048676,-0.11032,0.043183,0.0053407,0.44022,0.087434
-0.069734,0.023957,-0.12711,-0.11398,0.086824,-0.13809,0.15885,0.037995
-0.11215,0.14633,-0.14633,-0.15274,-0.0080873,-0.059358,-0.9987,-0.021515
-0.13474,0.10178,-0.066682,-0.10971,-0.069429,0.021515,-0.5919,0.066072
-0.15854,0.07187,-0.084382,-0.10788,-0.059052,-0.066072,0.38529,0.083772
-0.13046,0.059968,-0.076143,-0.096284,-0.066682,0.02884,0.061494,0.049897
-0.076753,-0.014496,-0.049897,-0.090791,-0.04715,0.051118,0.18936,0.070039
-0.0090028,-0.041657,-0.0206,-0.067292,-0.022431,0.03006,0.10636,0.077363
0.08072,-0.1799,-0.018769,-0.027314,-0.0080873,0.034943,0.070344,0.050507
0.11215,-0.36027,0.0032044,0.032502,0.017243,0.02945,0.041657,-0.015717
0.07126,-0.12802,0.010834,-0.063325,0.1207,0.025483,-0.031281,-0.073701
0.059052,-0.066377,-0.034028,-0.072786,0.11093,0.030365,-0.012055,-0.092317
0.059663,-0.077974,-0.019684,-0.026093,0.02884,0.0047303,-0.00045777,-0.099641
0.030365,-0.074311,-0.034943,-0.023651,0.034028,-0.022736,0.081941,-0.11429
-0.025788,-0.032807,-0.069429,-0.099336,-0.0096132,0.034943,0.081941,-0.078279
-0.040436,-0.011444,-0.084382,-0.15579,-0.041047,0.040436,0.11612,0.0068666
-0.077668,0.037079,-0.1033,-0.11734,0.034333,0.082551,0.24155,0.012665
-0.092927,0.076448,-0.11063,-0.12589,0.12253,0.013275,-0.059358,0.02121
-0.11368,0.071565,-0.11246,-0.11063,0.024262,-0.1738,-0.47532,0.077363
-0.14481,0.0972,-0.1146,-0.11582,-0.070954,-0.042878,-0.24582,0.07187
-0.13199,0.082246,-0.088655,-0.1149,-0.0795,0.078584,0.22171,0.033722
-0.10239,0.060273,-0.064546,-0.041352,-0.12222,0.069734,0.1445,0.046845
-0.063935,0.048066,-0.055085,-0.042878,-0.085298,-0.0041199,0.081331,0.086519
-0.039216,0.040131,-0.069123,-0.0068666,0.04593,-0.027619,0.13474,0.082246
0.013886,-0.16648,-0.0056458,-0.050202,0.087739,0.035554,0.082856,0.065156
0.063325,-0.22538,-0.017853,-0.22873,0.011139,0.062409,-0.0062562,0.067597
0.065461,-0.14755,0.005951,-0.10941,0.031586,0.020905,0.026703,0.016938
0.016632,-0.10971,-0.0083925,-0.1033,0.059663,-0.0096132,-0.034943,-0.022126
0.037079,-0.11398,-0.0206,0.12039,0.027924,0.041657,0.0071717,0.038911
0.029755,-0.087739,-0.061799,0.00045777,0.055695,-0.018769,0.063935,-0.03769
0.009308,-0.05417,-0.030365,-0.17685,0.036774,-0.027008,0.0065614,-0.13748
0.020294,-0.098116,-0.04654,0.010529,0.0077821,-0.0050355,-0.2031,-0.11734
-0.015106,-0.040742,-0.073091,-0.077668,0.082246,-0.098116,-0.41398,-0.12345
-0.048981,-0.014496,-0.098726,-0.10452,0.023346,0.059052,0.18265,-0.12131
-0.058747,-0.083772,-0.11368,-0.093538,-0.042878,0.035554,0.083772,-0.067903
-0.030976,-0.09781,-0.088655,-0.095064,-0.033722,-0.0086976,0.091707,0.051728
-0.077363,0.11948,-0.1323,-0.11643,-0.014496,-0.06363,0.17105,0.10239
-0.087739,0.14572,-0.11673,-0.11063,-0.017243,-0.041047,0.0068666,0.14054
-0.062715,0.20218,-0.034943,-0.090791,-0.0086976,-0.023651,-0.2974,0.1912
-0.056611,0.077363,0.023651,-0.079194,-0.027314,-0.0086976,-0.1619,0.20157
-0.06363,0.0019837,-0.026398,-0.075837,-0.031281,0.038605,0.18692,0.08072
-0.049592,-0.12039,-0.034638,-0.051118,-0.014191,0.044709,0.39994,0.083772
-0.024567,-0.17441,0.009308,-0.05539,-0.016938,0.1091,0.46006,0.084382
0.014801,-0.11673,-0.025483,-0.048371,0.026703,0.063325,0.067903,-0.023651
0.0010681,-0.092317,-0.086824,-0.045014,0.048371,-0.056001,-1.0079,-0.14389
0.013581,-0.083772,-0.039216,-0.014801,0.047761,-0.017548,-0.2031,-0.11307
0.043183,-0.12192,-0.0047303,-0.053254,0.051423,0.041047,0.36606,-0.093233
-0.0028992,-0.11551,-0.047761,-0.20218,0.063325,0.055085,0.18143,-0.077668
-0.0065614,-0.014191,-0.062104,-0.14908,0.041962,0.072786,0.063935,-0.04715
0.0019837,-0.02182,-0.073091,0.18936,0.034333,0.021515,-0.17624,-0.024872
-0.053864,0.066377,-0.15061,-0.24704,0.061799,-0.052949,-0.10147,-0.050507
-0.081636,0.06363,-0.13626,-0.12039,-0.050507,0.01297,0.15091,0.049287
-0.1146,0.061799,-0.11612,-0.1149,-0.084993,0.050507,0.35325,0.096895
-0.058137,-0.13016,-0.064851,-0.095369,-0.045319,-0.0010681,0.075532,0.14725
-0.070954,-0.12467,-0.10605,-0.10147,-0.053559,-0.061189,-0.41886,0.1149
-0.038605,0.037079,0.018769,-0.068818,-0.025483,-0.047456,-0.37827,0.055695
-0.0053407,-0.0019837,0.026703,-0.038605,-0.028534,0.026093,0.29007,0.051423
0.019074,-0.02182,-0.077974,-0.050813,0.01297,-0.0068666,0.21347,0.022126
-0.040436,-0.022736,-0.074922,-0.05478,0.051423,-0.019989,-0.026398,-0.059663
0.031586,-0.052949,-0.031891,-0.07126,0.051423,0.040742,0.031586,0.049287
0.067597,-0.094453,-0.02182,-0.06302,0.023651,0.078584,0.10819,0.0035096
0.078584,-0.13809,0.035859,-0.041047,0.048371,0.015106,0.070344,-0.10788
0.048371,-0.11154,-0.024872,-0.043488,0.052338,-0.032807,0.018158,-0.11032
0.046235,-0.13443,-0.064851,-0.026093,0.030976,-0.041352,-0.087739,-0.1323
-0.052033,-0.03769,-0.054475,-0.0383,0.043183,-0.031586,-0.15793,-0.12161
-0.085603,-0.014496,-0.074922,-0.028534,0.063935,-0.0077821,0.092622,-0.057832
-0.069123,0.035248,-0.1323,-0.08957,0.021515,0.063325,-0.03769,0.0090028
-0.061189,0.061494,-0.11734,-0.2211,0.0096132,0.092927,0.44297,0.075227
-0.094148,0.00045777,-0.069123,-0.21561,-0.010834,0.016327,0.061189,0.028229
-0.13077,0.099336,-0.092012,-0.057527,-0.051728,-0.023346,-0.84611,0.0028992
-0.12009,0.075837,-0.074006,-0.078279,-0.048981,0.032197,0.038911,0.099031
-0.11429,0.034333,-0.10361,-0.084993,-0.057527,0.012665,0.19455,0.13626
-0.044709,-0.024567,-0.075837,-0.07248,-0.053864,-0.0056458,0.034333,0.16342
0.0028992,-0.094759,-0.018463,-0.060883,-0.028534,0.010529,0.16098,0.095674
0.0074769,-0.099336,-0.034333,-0.050507,-0.019684,0.033112,0.059358,0.016632
0.023651,-0.084077,-0.0065614,-0.055695,0.040131,-0.023957,-0.081331,0.0032044
-0.0086976,-0.098116,-0.013581,-0.047456,0.052033,-0.058442,-0.103,-0.068208
0.011749,-0.12345,-0.019684,-0.035554,0.015106,0.05539,0.030365,-0.035554
0.037385,-0.12009,-0.0044251,0.0013733,0.045014,0.010224,0.0795,0.010529
0.017548,-0.086824,-0.028534,-0.046235,0.052033,0.06424,0.17746,-0.04593
0.033112,-0.093538,-0.027619,-0.13596,0.065461,-0.03006,-0.11002,0.034028
0.0035096,-0.032502,-0.065766,-0.085908,0.047456,-0.051728,-0.067903,-0.009308
-0.062104,0.065461,-0.090486,-0.085298,0.002594,0.045319,0.12467,-0.074617
-0.085298,0.070649,-0.11704,-0.11765,0.02182,0.011139,0.069123,-0.013581
-0.047761,0.13138,-0.12772,-0.10513,0.0035096,0.035554,0.057527,0.047761
-0.037079,0.18204,-0.12619,-0.12161,-0.034943,0.077058,0.0047303,0.00045777
-0.069123,0.041352,-0.10208,-0.095369,-0.031586,0.045624,0.010834,0.0099184
-0.086824,0.00045777,-0.082551,-0.074922,-0.025788,-0.04593,-0.023041,0.046845
-0.051423,-0.093843,-0.038605,-0.040131,-0.0083925,-0.14237,-0.1384,0.031281
-0.019074,-0.32761,-0.030976,-0.079194,-0.020905,-0.059052,0.085603,0.014801
-0.076753,-0.15976,0.015717,-0.063325,-0.023041,0.091096,0.44755,0.017243
-0.037079,-0.049897,-0.058442,-0.040436,-0.047761,0.10605,0.063935,0.054475
-0.010529,0.033417,-0.020294,-0.047761,0.029145,-0.050202,-0.61326,0.028229
-0.019684,0.069123,0.013886,-0.014191,0.10819,-0.072175,-0.46281,-0.024872
-0.012665,-0.043488,-0.05478,-0.013581,0.10483,0.052338,0.46342,0.070649
0.022126,-0.073701,-0.052033,0.002594,0.059358,0.045319,0.11032,0.055085
0.042878,-0.10391,-0.024262,-0.2974,0.005951,0.046235,0.0019837,-0.06363
0.050202,-0.10208,-0.063325,-0.085603,0.027314,-0.070344,0.24491,-0.10788
0.015717,-0.041352,-0.074617,-0.019074,-0.018463,0.073091,0.41398,-0.016938
0.035248,0.015412,-0.048066,-0.079194,0.0071717,0.0383,0.05539,0.027314
-0.0206,-0.063325,-0.081941,-0.10575,0.015717,-0.025483,-0.95048,-0.059358
-0.060883,-0.17411,-0.11337,-0.10575,-0.0010681,-0.020294,-0.21347,-0.027619
-0.095979,-0.063325,-0.081331,-0.12253,-0.024567,-0.009308,0.23575,0.0206
-0.10056,0.0080873,-0.066987,-0.10636,-0.031586,-0.0062562,0.034943,0.051728
-0.11337,0.084077,-0.11307,-0.10849,-0.043488,-0.0028992,0.093538,0.061494
-0.087739,0.10513,-0.089265,-0.093538,-0.049287,0.012665,0.076448,0.05417
-0.058747,0.078584,-0.073091,-0.046845,-0.05539,0.051118,0.08011,0.049897
-0.041047,-0.015717,-0.076753,-0.028229,-0.027314,0.047456,0.082856,0.066072
-0.016938,-0.08957,-0.012055,-0.16403,-0.0080873,0.023041,0.048066,0.045014
-0.0041199,-0.095674,0.010224,-0.092622,0.017243,0.0032044,0.042878,0.016938
0.02945,-0.12802,0.037385,0.1857,0.063325,0.013275,0.0077821,-0.011139
0.0086976,-0.12406,0.00076295,-0.18509,0.096284,0.058137,0.02182,-0.025177
0.03769,-0.11612,-0.032197,-0.079805,-0.0013733,0.085298,0.11185,-0.053559
0.048981,-0.099641,-0.04654,-0.01236,-0.014496,0.032502,0.11978,-0.1033
0.03006,-0.046235,-0.054475,-0.066377,0.12222,-0.040131,-0.013275,-0.11643
-0.0044251,-0.020294,-0.070344,-0.052949,0.12314,-0.087129,-0.33646,-0.081941
-0.029145,0.045319,-0.13291,-0.089876,-0.014496,-0.034333,0.11185,0.045624
-0.064851,0.092622,-0.14878,-0.089265,-0.0035096,-0.053559,0.22782,0.10849
-0.057832,0.070344,-0.055695,-0.048676,0.037079,0.018463,-0.21622,0.086213
-0.058137,0.048676,-0.1146,-0.16464,-0.0090028,-0.005951,-0.39231,0.02945
-0.06302,0.057221,-0.10483,-0.29007,-0.051118,-0.024262,0.06302,0.017548
-0.060578,-0.01236,-0.018769,-0.13382,-0.061494,-0.014191,0.24125,0.057832
-0.1146,0.0053407,-0.082246,-0.059663,-0.040436,-0.0080873,0.084382,0.045624
-0.082246,-0.023957,-0.030365,0.035248,-0.03769,0.043488,-0.13046,0.078279
-0.0086976,-0.12192,0.0019837,0.093233,-0.0050355,0.022736,-0.14542,0.07248
0.032807,-0.17838,0.041047,-0.02884,0.059663,0.0032044,0.16281,0.023346
0.049592,-0.168,-0.041657,-0.081331,0.042878,0.016938,-0.0056458,-0.016632
0.026703,-0.16739,-0.04593,-0.10147,0.011139,0.042878,0.10697,-0.065156
0.033722,-0.19486,-0.026398,-0.064851,0.032807,0.038605,0.019074,-0.04715
0.022736,-0.070954,-0.02884,-0.053254,0.041352,0.05478,0.049592,-0.047761
-0.010529,-0.0044251,-0.049287,-0.065156,0.056916,0.034638,0.059663,-0.085298
-0.020294,0.010529,-0.074922,-0.076753,0.029145,0.021515,-0.0056458,-0.025177
-0.059052,0.067292,-0.1146,-0.083467,0.0016785,0.020294,0.095369,-0.017548
-0.081636,0.10452,-0.11612,-0.11063,0.0071717,-0.0028992,0.29007,0.0099184
-0.078279,0.093233,-0.11643,-0.12161,-0.0044251,-0.0022889,0.28794,0.057221
-0.11795,0.09781,-0.093538,-0.11734,-0.035554,0.0028992,-0.35264,0.0041199
-0.13077,0.034028,-0.068208,-0.11704,-0.04715,-0.035554,-0.85924,0.045319
-0.08957,0.060273,-0.074006,-0.21195,-0.052644,0.019989,0.16678,0.15244
-0.047456,-0.02182,-0.048371,0.018769,-0.042573,0.043183,0.17075,0.12436
-0.033112,-0.11551,-0.023957,-0.013275,-0.010529,0.022736,0.087434,0.093538
-0.025788,-0.086519,-0.042878,-0.093843,0.021515,-0.00015259,0.1146,0.070344
0.012665,-0.10239,-0.0206,-0.032807,-0.074006,0.042878,0.14389,0.036164
0.091402,-0.16373,0.016327,-0.10117,-0.039216,0.02945,0.14298,-0.029145
0.072786,-0.14939,-0.045624,-0.08072,0.11002,-0.0383,-0.25742,-0.11551
0.073701,-0.15579,-0.074311,-0.0383,0.16037,-0.044099,-0.41245,-0.13016
0.093538,-0.12955,0.0071717,-0.041047,0.090791,0.04654,0.103,-0.083772
0.010834,-0.056306,-0.0041199,-0.068208,0.042267,0.040131,0.22873,-0.13993
0.017243,-0.060273,-0.034638,-0.057527,0.015717,0.0090028,0.10666,-0.099947
-0.014496,0.031586,-0.10758,-0.025177,0.030365,-0.066072,0.066072,-0.081636
-0.062104,0.08011,-0.11154,-0.045014,0.042267,-0.1323,-0.1799,-0.045624
-0.11765,0.072175,-0.1088,-0.11307,0.021515,-0.0016785,0.085298,0.074617
-0.12467,0.035554,-0.093538,-0.13565,-0.0090028,0.0038148,0.13199,0.24277
-0.15763,0.055085,-0.095064,-0.15335,-0.034333,-0.019379,-0.067597,0.19028
-0.14817,0.070039,-0.086824,-0.1146,-0.057832,-0.0022889,-0.047456,0.091707
-0.1265,0.049592,-0.10056,-0.1326,-0.10544,0.075227,0.084688,0.062104
-0.11643,0.061189,-0.093538,-0.10178,-0.08835,0.084382,0.15305,0.032197
-0.08957,0.019379,-0.074006,-0.082246,-0.055695,0.079194,0.13321,0.073396
-0.011444,0.0022889,-0.018158,-0.062409,-0.0062562,0.017243,0.21317,0.09659
0.040436,-0.10361,0.002594,-0.002594,0.021515,0.058137,0.20066,0.0383
0.035554,-0.18448,-0.00045777,-0.010529,0.035554,0.068208,0.098421,0.0071717
0.043183,-0.24369,0.0080873,-0.0013733,0.056306,-0.033112,-0.35874,-0.046845
0.033417,-0.22599,0.00015259,0.027314,0.089876,-0.037995,-0.46036,-0.094148
0.08072,-0.25895,0.026093,-0.11093,0.099336,0.013886,-0.0080873,-0.074617
0.068208,-0.23178,-0.046845,-0.14572,0.067292,-0.023957,-0.02121,-0.089876
0.024262,0.082551,-0.093538,-0.087739,0.024262,0.0077821,0.21347,-0.077668
0.036164,0.23941,-0.093538,-0.081025,0.014801,0.019989,0.36515,-0.018158
-0.002594,0.027314,-0.12955,-0.082551,0.017548,-0.0010681,0.23087,-0.002594
-0.034943,-0.0022889,-0.11734,-0.10269,-0.00045777,-0.02182,-0.50553,-0.059968
-0.046845,-0.045319,-0.064546,-0.086824,-0.01236,-0.041962,-0.76188,-0.010834
-0.062104,-0.024567,-0.10147,-0.12497,-0.029755,0.011444,0.18967,0.032197
-0.082246,0.018463,-0.068513,-0.11337,-0.074006,0.034943,0.10361,0.017548
-0.092012,0.085603,-0.12863,-0.094759,-0.075227,0.012055,0.075532,0.037995
-0.070954,0.066682,-0.073396,-0.10788,0.005951,-0.040436,0.049592,0.05539
-0.052949,0.011749,-0.045014,-0.040131,0.0013733,0.030365,0.17258,0.063325
-0.033417,-0.0019837,-0.037995,-0.069123,0.00076295,0.048371,0.309,0.0795
-0.015106,-0.10391,0.089265,-0.00045777,0.051728,-0.07187,0.011139,0.091402
-0.032502,-0.22782,0.024872,-0.058137,0.043183,-0.04654,-0.057832,0.037995
0.0041199,-0.27604,0.14023,-0.054475,0.046845,0.093538,0.2623,0.0035096
-0.023041,-0.17807,-0.055695,-0.059663,0.037995,0.049592,0.067903,0.017853
-0.017243,-0.088045,-0.10544,-0.0383,0.0068666,-0.084688,-0.63218,-0.0062562
-0.0013733,0.031281,-0.11887,-0.051118,0.037385,0.039521,-0.29282,0.04593
-0.017243,0.083162,-0.080415,-0.068208,0.070344,0.070649,0.33433,-0.0044251
-0.01297,0.082551,-0.076143,0.024567,0.024262,-0.023346,0.088655,-0.01297
-0.013581,0.054475,-0.15671,0.0077821,0.0074769,0.085603,0.10575,-0.040742
-0.074922,-0.014191,-0.099336,-0.23636,0.027314,0.046845,0.17563,-0.0041199
-0.13931,-0.036469,-0.10697,-0.27207,-0.016632,-0.014191,0.10666,0.032807
-0.10697,0.055695,-0.10727,-0.11063,-0.051423,-0.0047303,0.012665,0.042878
-0.081941,0.094453,-0.10697,-0.18662,-0.078279,0.020294,-0.053864,-0.0071717
-0.075227,0.070344,-0.0795,0.097505,-0.05539,-0.074617,0.0090028,-0.0013733
-0.018769,-0.061494,-0.019989,-0.11154,-0.028229,-0.08072,0.0010681,0.031891
0.051118,-0.1561,-0.015717,-0.19821,-0.00045777,0.024872,-0.002594,0.013275
0.026093,-0.070954,-0.023041,-0.0032044,0.019074,-0.0071717,-0.31632,-0.069123
0.070344,-0.11734,-0.0041199,0.0099184,0.039521,0.049287,0.016022,-0.029145
0.0099184,-0.11154,-0.0053407,0.042878,0.03769,0.018769,0.18051,-0.024262
0.036164,-0.13138,-0.010834,-0.093843,-0.0062562,-0.019379,-0.12467,-0.017243
0.043793,-0.099947,-0.020905,-0.089876,-0.012055,0.010834,0.065766,-0.033112
0.002594,-0.046845,-0.025788,-0.090791,0.12558,0.017243,0.11032,-0.089265
-0.0068666,-0.039521,-0.074006,-0.077058,0.15579,0.08072,0.033417,-0.016632
-0.045319,-0.03006,-0.086213,-0.074922,0.038911,0.048676,0.021515,0.015717
-0.03769,-0.010529,-0.085298,-0.089876,-0.010834,-0.0056458,-0.0062562,0.032807
-0.06363,0.017243,-0.099641,-0.10361,-0.026703,0.019074,0.019684,0.062409
-0.090181,0.042267,-0.1033,-0.099031,-0.042878,0.0019837,-0.0071717,0.039521
-0.1033,0.083467,-0.1146,-0.12497,-0.040436,-0.029755,0.10178,0.051118
-0.069429,0.04654,-0.089265,-0.077363,-0.053864,0.002594,0.31998,0.074617
-0.083467,0.039521,-0.099336,-0.12863,-0.051728,0.050813,0.39017,0.028229
-0.056611,-0.0022889,-0.028229,-0.11765,-0.036469,0.029145,-0.37675,-0.020294
0.0028992,-0.067597,-0.042573,-0.036164,-0.046845,0.046845,-0.75944,-0.0032044
-0.042878,-0.084077,-0.036774,-0.056306,0.015412,0.034028,0.24765,-0.031891
0.0032044,-0.13077,-0.0022889,-0.036164,0.037995,-0.0035096,0.18051,-0.039216
-0.022431,-0.069429,-0.024567,-0.032807,0.023651,0.0077821,-0.29435,0.017853
-0.068208,0.002594,-0.034943,-0.024567,0.081941,-0.065461,-0.016327,0.051423
-0.0074769,-0.022736,-0.027008,-0.062409,0.091402,-0.045014,0.4683,0.19974
-0.019074,-0.027619,-0.0080873,-0.076448,0.049287,0.031281,-0.10208,0.1503
-0.043793,0.039826,-0.027008,-0.066377,0.017243,0.095674,0.10544,0.069123
-0.029755,-0.053864,0.0080873,-0.10941,0.0071717,0.022126,-0.056001,0.019074
0.042878,-0.29862,-0.070954,-0.14267,-0.00015259,0.0206,0.020294,-0.042573
0.089876,-0.45548,-0.10239,0.048676,0.014801,0.011139,0.21012,-0.075532
-0.012665,0.10941,-0.1564,0.0096132,0.052338,-0.029145,0.047456,-0.092317
-0.11551,0.24949,-0.13077,-0.11551,0.081941,0.011444,-0.21195,-0.083162
-0.099031,0.073701,-0.092317,-0.10575,-0.0068666,0.081636,-0.17838,0.013581
-0.081941,0.041657,-0.092927,-0.17777,-0.058442,0.017243,0.15,0.027619
-0.048981,0.061494,-0.081941,-0.21897,-0.062715,-0.030365,-0.037079,0.053864
-0.064546,0.044709,-0.061189,-0.10758,-0.058442,0.029145,0.00076295,-0.0041199
-0.020905,-0.018769,-0.041657,-0.050202,-0.062104,0.035248,0.086519,0.0383
0.00076295,-0.069429,0.019379,-0.040131,0.0028992,-0.058442,0.16007,0.053254
0.056001,-0.16587,0.024262,0.00045777,0.020905,-0.0038148,0.327,0.059358
0.050202,-0.1976,-0.0047303,-0.015412,0.035554,0.050813,0.26047,0.0086976
0.043488,-0.11551,-0.018769,-0.041047,0.071565,0.00076295,-0.4213,-0.11704
0.024872,-0.02182,-0.022126,-0.057221,0.053559,-0.034028,-0.83513,-0.14755
0.009308,-0.058442,-0.02884,-0.056611,0.069734,-0.015412,0.07187,-0.074617
0.0041199,-0.074922,-0.038911,-0.067597,0.04593,0.0077821,0.093843,-0.025788
-0.030671,-0.066682,-0.078279,-0.076448,0.027008,0.0010681,0.062409,0.026703
-0.0383,-0.066987,-0.083162,-0.085908,0.019684,0.016632,0.04654,0.0206
-0.066987,-0.058137,-0.10056,-0.085908,0.026093,-0.0077821,0.0795,0.038911
-0.066682,-0.009308,-0.13077,-0.16861,-0.028534,0.017243,0.17258,0.07187
-0.084382,0.077668,-0.1323,-0.20188,-0.045624,0.016938,0.12467,0.031586
-0.057527,0.10575,-0.095369,0.16617,-0.059968,-0.0080873,-0.17838,-0.017548
-0.08896,0.11398,-0.11368,-0.2504,-0.017243,-0.013581,-0.0071717,-0.022126
-0.07126,0.0041199,0.0086976,-0.087434,-0.074617,0.067292,0.29465,0.024872
-0.052949,-0.02945,-0.016632,-0.0019837,-0.067903,0.03006,0.19516,0.018769
-0.051423,0.010529,-0.068513,-0.095369,0.035554,-0.013581,0.023041,-0.0065614
-0.034638,-0.018769,-0.03006,0.026703,0.034943,-0.0016785,-0.11002,0.060578
0.031586,-0.12284,-0.0090028,-0.10758,0.03769,-0.1146,-0.5452,0.11673
0.02182,-0.11185,-0.04654,-0.07126,0.087434,-0.0795,-0.11429,0.11246
-0.026703,-0.1323,-0.020294,-0.081636,0.019684,0.12345,0.77867,0.11398
-0.0050355,-0.14054,-0.019074,-0.05539,0.032197,0.018769,-0.11032,0.062104
0.01297,-0.11887,-0.02884,-0.030671,0.039826,0.093843,-0.37034,0.02945
-0.0041199,-0.068818,-0.05478,-0.075227,0.050507,0.13413,0.39689,-0.025177
-0.029145,-0.012055,-0.077974,-0.1149,0.060578,-0.022736,0.10086,-0.058747
-0.019074,0.042267,-0.081331,-0.103,0.0053407,-0.017243,-0.049897,-0.061494
-0.023346,0.10239,-0.091096,-0.087434,-0.010529,-0.018769,-0.014801,-0.077974
-0.063935,0.033112,-0.11765,-0.095369,0.0056458,-0.039826,-0.023346,-0.044404
-0.10697,0.040131,-0.1387,-0.10697,-0.013581,-0.024262,-0.032502,0.015106
-0.082856,0.023957,-0.11643,-0.091096,-0.054475,0.015412,-0.01236,0.023957
-0.038911,-0.066987,0.026703,-0.036164,-0.045319,0.012055,0.012055,0.040131
-0.016327,-0.026093,-0.063325,-0.097505,-0.00045777,-0.0080873,-0.010529,0.03769
-0.019684,-0.0044251,-0.070039,-0.11551,0.0080873,-0.013886,0.017243,0.049287
