0.057221,-0.13382,0.005951,-0.0044251,-0.28183,0.19974,0.059663,-0.0013733
0.0383,-0.12558,0.00015259,-0.016632,0.74388,-1.2209,-1.1238,-0.088045
0.024872,-0.099336,-0.016327,-0.06302,1.5435,-0.96086,-0.41611,-0.090791
0.051728,-0.10208,-0.022736,-0.057527,0.26383,0.54826,0.43076,-0.01236
0.011139,-0.066987,-0.056611,-0.073701,-0.58732,-0.39231,0.043793,-0.10391
0.01297,-0.053864,-0.072786,-0.066377,-0.089876,-0.087739,0.14603,-0.092012
-0.027314,-0.0047303,-0.10483,-0.085603,-0.05539,0.2327,0.25376,-0.025483
-0.073396,0.044404,-0.13321,-0.093233,-0.0041199,0.034638,0.12985,0.0019837
-0.099947,0.08072,-0.14572,-0.15763,-0.050507,0.10239,0.15885,0.022126
-0.085298,0.061494,-0.096895,-0.15335,-0.063935,0.068818,0.020294,0.020905
-0.096284,0.027314,-0.085908,-0.061799,-0.059052,0.049592,0.045319,0.0010681
-0.10758,0.059663,-0.10544,-0.1265,-0.092317,-0.010834,0.26139,0.049897
-0.014496,-0.0080873,-0.056916,-0.058137,-0.17258,-0.22507,0.08957,0.11826
-0.018463,-0.015717,-0.052949,-0.11795,0.22324,-0.20035,-0.3508,0.076143
-0.016938,-0.060578,-0.010224,-0.050813,0.21195,0.40513,-0.15305,-0.0022889
0.012055,-0.095979,0.005951,-0.055695,-0.58946,1.0307,0.17899,0.061799
0.051423,-0.17472,0.040742,-0.0062562,-0.056611,0.28367,-0.065461,0.047456
0.041657,-0.10391,-0.03006,-0.016327,-0.13016,-0.015717,-0.1912,-0.01297
0.056001,-0.12192,-0.010529,-0.065766,0.25742,-0.66392,-0.045319,-0.096895
-0.0071717,-0.074006,-0.02182,-0.10849,0.3035,-0.73991,-0.083467,-0.17044
0.002594,-0.087739,-0.0383,-0.028534,-0.036469,-0.11795,-0.091707,-0.10086
0.0053407,-0.066072,-0.04715,-0.026398,0.16495,0.23636,0.27634,0.011444
-0.028534,-0.032502,-0.077058,-0.097505,0.018769,0.12192,0.31907,0.059052
-0.058137,0.02945,-0.1268,-0.13474,0.10544,0.20523,0.26108,0.10788
-0.069734,0.040131,-0.12345,-0.13107,0.27207,0.1912,0.17105,0.081331
-0.099336,0.05539,-0.13443,-0.10697,-0.034333,0.15885,-0.28183,0.058137
-0.095674,0.04654,-0.12314,-0.081636,0.099336,-0.013275,-0.69688,0.044099
-0.073396,0.030671,-0.084993,-0.11795,0.030365,-0.034333,-0.11704,0.043183
-0.078889,0.037995,-0.080415,-0.1268,-0.53269,0.28489,0.28367,0.056611
-0.08011,0.010529,-0.05417,-0.058137,-1.028,-0.72862,0.06302,0.040436
-0.059663,-0.014496,-0.056611,-0.050202,0.08072,-0.392,0.10452,0.055085
-0.033417,-0.030976,-0.046845,-0.11337,0.44236,0.55375,0.11978,0.040436
-0.0068666,-0.09781,0.023957,-0.046845,0.30137,-0.15854,-0.096895,0.009308
0.020905,-0.14145,0.032502,0.033112,0.12955,-0.44694,-0.12375,-0.022126
0.0080873,-0.11429,0.0035096,-0.08896,-0.34043,0.36515,0.20768,0.009308
-0.0074769,-0.08957,-0.017548,-0.085603,0.11887,0.11002,0.11856,-0.0044251
0.031281,-0.11887,-0.014496,-0.015106,0.045319,0.046235,0.036164,-0.027619
0.019379,-0.08957,-0.030671,-0.065766,0.085603,0.038605,-0.016938,-0.10727
0.02121,-0.085603,-0.043183,-0.02121,0.096284,0.034943,0.02945,-0.038605
-0.0071717,-0.018158,-0.13565,-0.079194,0.040131,0.068208,0.085603,0.0016785
-0.036774,0.021515,-0.11429,-0.12131,0.061799,0.0062562,0.013581,-0.015106
-0.067597,0.056306,-0.12985,-0.14725,0.037079,-0.028229,-0.018769,-0.042878
-0.087434,0.059358,-0.12039,-0.13352,-0.022126,0.043488,0.13382,0.028229
-0.076753,0.060273,-0.11337,-0.103,-0.056001,0.060578,0.07126,0.11185
-0.068818,0.036469,-0.08957,-0.07126,-0.021515,-0.038911,-0.12009,0.059663
-0.041962,0.013581,-0.063325,-0.045014,-0.0086976,-0.051728,0.029755,0.055085
-0.0383,-0.02182,-0.034333,-0.093843,-0.0013733,-0.0022889,-0.14603,0.054475
-0.043793,-0.033417,-0.034333,-0.13443,-0.0062562,0.13016,-0.29129,-0.0053407
0.0016785,-0.1146,0.0019837,-0.010224,-0.032197,0.14603,0.10025,0.013275
0.025788,-0.13138,0.014191,-0.010834,-0.027314,0.085908,0.17899,0.029145
0.03006,-0.11215,-0.0019837,-0.066682,0.057221,-0.15244,-0.041657,-0.022736
0.046235,-0.11978,0.0062562,-0.024872,0.090181,-0.3917,0.00076295,-0.073396
0.026703,-0.11582,-0.010834,-0.035248,0.083162,-0.11765,0.15824,-0.06302
0.019074,-0.092317,-0.011749,-0.069123,-0.089265,0.30381,0.14817,-0.064546
0.011139,-0.070344,-0.064546,-0.044709,-0.14878,0.2443,-0.13809,-0.052644
-0.0080873,-0.024872,-0.08072,-0.091402,-0.035248,0.058747,-0.1033,-0.077668
-0.02121,-0.040436,-0.079194,-0.030365,0.19059,-0.12375,-0.1146,-0.039826
-0.074617,0.041352,-0.13169,-0.19211,0.3508,0.47318,0.27451,0.035554
-0.10727,0.069123,-0.11765,-0.12131,0.21286,0.2385,0.58091,0.13657
-0.11826,0.091096,-0.1445,-0.11582,0.21073,-0.81895,-0.12619,0.13657
-0.1326,0.083772,-0.11643,-0.11917,0.052033,-0.37003,0.0090028,0.070039
-0.10697,0.040742,-0.079194,-0.094759,-0.57603,0.44694,0.93828,0.15244
-0.082856,0.017243,-0.059968,-0.082856,-0.36973,-0.055695,-0.12985,0.06424
-0.045319,-0.024262,-0.050507,-0.08072,0.090181,-0.070344,-1.2956,0.0050355
-0.0068666,-0.065766,-0.018463,-0.040131,0.0010681,0.0041199,-0.30594,-0.024872
0.019684,-0.14145,0.0062562,-0.0035096,0.16434,0.13291,-0.58305,-0.11337
0.037079,-0.12436,0.011749,-0.066987,0.09781,0.26352,-0.21073,-0.0795
0.045624,-0.12741,-0.0028992,-0.060883,-0.37552,0.25864,0.58,-0.010834
0.044404,-0.12497,-0.0056458,-0.045014,-0.16953,0.11551,0.45762,0.019074
0.053254,-0.13016,-0.0016785,-0.040742,0.14878,-0.40543,0.51896,0.025177
0.043488,-0.095979,-0.027008,-0.023651,0.34958,-0.34531,0.43381,-0.015717
0.015106,-0.061494,-0.068513,-0.078889,0.095979,0.44388,-0.11337,-0.079194
-0.017243,-0.033722,-0.099641,-0.11978,0.025483,-0.056001,-1.1336,-0.12558
-0.070954,0.041962,-0.10086,-0.11185,-0.082246,-0.0096132,0.011444,0.014801
-0.08896,0.075227,-0.13077,-0.11704,-0.090181,0.070344,0.45762,0.072175
-0.083162,0.033112,-0.11246,-0.084688,-0.26047,-0.89036,0.19181,0.0065614
-0.056001,0.014496,-0.10727,-0.017243,0.019989,0.070649,0.13596,0.01297
-0.085603,0.067292,-0.1146,-0.10178,-0.16281,1.071,-0.41703,-0.0053407
-0.065766,0.044709,-0.086824,-0.15579,-0.025788,0.65049,0.32364,0.10086
-0.061494,0.0071717,-0.062715,-0.094453,0.77134,0.27848,0.16495,0.12192
-0.018769,-0.030365,-0.038911,-0.070954,-0.13809,-0.85466,-0.8394,0.11887
0.017548,-0.082856,0.00076295,-0.014191,-0.013581,-0.96239,-0.092012,0.067597
0.012055,-0.092927,0.0074769,-0.056916,0.12772,-0.47105,0.46708,-0.027314
-0.0065614,-0.1146,-0.0013733,-0.10636,0.11246,0.33921,0.46769,-0.063935
-0.0047303,-0.10086,0.0041199,-0.052949,0.1207,0.70085,-0.023346,-0.061494
0.017243,-0.11368,-0.0044251,-0.041657,0.12985,0.052338,-0.22843,-0.055695
0.022736,-0.13596,-0.012055,-0.015412,-0.55711,-0.26291,-0.023651,-0.037079
-0.015412,-0.092317,-0.046235,-0.032502,-0.21866,0.024567,-0.45274,-0.052644
-0.018769,-0.044709,-0.075227,-0.10391,0.30961,0.044404,0.17838,-0.018769
-0.087129,0.032197,-0.12345,-0.17868,0.010834,0.31907,0.24369,-0.0096132
-0.10544,0.023651,-0.098116,-0.051118,-0.068513,0.093233,0.67491,0.14542
-0.10758,0.05539,-0.10208,-0.032502,-0.17258,-0.63645,0.91783,0.23178
-0.073091,0.070344,-0.16312,-0.15976,-0.085298,0.25132,0.3856,0.1323
-0.054475,0.032197,-0.081331,-0.19059,0.61295,0.073701,-0.74754,-0.014496
-0.049287,0.0047303,-0.0972,-0.046235,0.27085,-0.70756,-1.9481,-0.14939
-0.062104,0.021515,-0.081941,-0.080415,-0.093843,-0.22629,-0.20951,-0.092927
-0.052949,0.0010681,-0.044709,-0.078584,-0.37827,0.55192,0.35325,0.019379
-0.015412,-0.042573,-0.042267,-0.16007,-0.59342,-0.019684,0.1091,0.078279
0.014801,-0.077974,-0.0041199,-0.27848,0.37003,-0.30137,0.32822,0.059358
0.025177,-0.10147,0.028534,-0.1091,0.017853,0.43778,0.24765,0.020905
0.060273,-0.14878,0.013886,0.3505,0.010529,0.21103,0.25498,0.0065614
0.056001,-0.14145,-0.0044251,-0.024872,0.17807,-0.054475,0.41001,-0.016938
0.027314,-0.10269,-0.017853,-0.080415,0.073701,0.31052,0.5687,-0.01236
0.050202,-0.12253,-0.0096132,-0.027314,-0.22293,0.6688,0.72465,0.066377
0.015106,-0.078889,-0.048981,-0.043183,-0.065766,0.71092,0.46403,-0.01297
0.0038148,-0.051728,-0.074311,-0.0083925,0.65537,-0.38437,-0.16098,-0.099336
-0.032502,0.024567,-0.1265,-0.086519,0.67857,-1.1556,-0.61295,-0.074006
-0.052949,0.062104,-0.12528,-0.1149,0.28214,-0.37003,-1.3317,-0.11612
-0.070649,0.027314,-0.095064,-0.15183,-0.96086,0.061494,-1.0463,-0.052949
-0.11246,0.075837,-0.13993,-0.21103,-0.9807,-0.32914,-0.28733,-0.0053407
-0.1091,0.053559,-0.10056,-0.084382,0.18418,0.23178,0.41367,0.069123
-0.13748,0.10666,-0.14694,-0.13443,-0.2388,1.3387,0.55863,0.10605
-0.10391,0.035248,-0.051728,-0.037079,-0.58366,0.98009,0.54612,0.14267
-0.049592,-0.074311,-0.016327,0.0071717,0.23117,-0.16251,0.55222,0.1149
-0.060883,-0.043793,-0.026398,-0.18967,1.3213,-1.082,-0.22904,0.014191
0.0080873,-0.13138,0.016632,-0.0068666,0.37522,0.67796,-0.28733,0.074617
0.039521,-0.11185,-0.016327,-0.065766,-1.0387,0.29038,0.15152,0.041657
0.041352,-0.12772,0.005951,-0.079805,-0.71031,-1.1763,-0.23697,-0.10147
0.018769,-0.13565,0.00015259,-0.051118,1.0774,-1.0219,-0.034943,-0.061189
0.015717,-0.11063,-0.010529,-0.0080873,0.53971,0.050507,-0.054475,-0.010529
0.015717,-0.10788,-0.025788,-0.055085,-0.076753,0.31632,0.059663,-0.095064
0.013886,-0.050813,-0.060273,-0.066682,-0.0050355,0.11917,0.077974,-0.044709
-0.0050355,-0.033417,-0.092927,-0.0795,-0.077974,0.10697,-0.01236,0.0206
-0.033417,0.024567,-0.12924,-0.10971,-0.17502,0.33829,0.075227,0.015106
-0.050507,0.033417,-0.10941,-0.064851,-0.51896,0.48112,0.16312,-0.019684
-0.059052,0.05417,-0.10941,-0.094453,0.19852,0.13931,-0.22446,0.018158
-0.11032,0.082246,-0.12894,-0.12741,0.84337,-0.87999,-0.1857,0.068513
-0.1033,0.089876,-0.10605,-0.16892,0.076448,-0.34226,0.37003,0.13046
-0.056611,0.053864,-0.088655,-0.14603,-0.11612,0.45304,0.54856,0.15702
0.022126,-0.025483,-0.031586,-0.027314,-0.31968,0.23423,0.48569,0.10605
-0.034333,-0.068208,-0.016327,-0.033112,-0.45243,0.17197,-0.20096,-0.0068666
-0.022431,-0.13077,-0.0022889,-0.034333,0.088655,-0.02182,-0.68711,-0.034333
-0.012055,-0.10086,-0.010529,-0.11368,0.1622,0.26474,0.34257,-0.019074
0.013275,-0.11154,-0.011749,-0.076753,-0.22751,0.1854,-0.10391,-0.061189
0.041047,-0.12894,0.016632,-0.013581,0.079194,-0.57755,-0.5037,-0.065156
0.08072,-0.1442,-0.0096132,0.0028992,0.039826,-0.78874,-0.099031,-0.092012
0.005951,-0.10269,-0.019684,-0.088655,-0.076143,0.50767,-0.16983,-0.19699
-0.030365,-0.052033,-0.052644,-0.10117,-0.017548,1.1119,-0.20432,-0.14023
-0.037385,-0.034333,-0.073396,-0.052644,0.045624,0.24979,0.30198,0.012665
-0.051118,-0.014801,-0.090791,-0.037385,-0.032807,-0.11734,0.14603,0.040436
-0.079194,0.036469,-0.12161,-0.11093,0.11582,-1.2694,0.016022,0.031586
-0.10758,0.073701,-0.12955,-0.12039,0.42466,-0.61692,0.71427,0.11185
-0.095064,0.074311,-0.1268,-0.12558,-0.11521,1.111,0.99077,0.23514
-0.095369,0.069123,-0.10056,-0.13474,0.2211,0.86778,0.21592,0.17441
-0.085298,0.050202,-0.088045,-0.10361,0.14664,0.046845,-1.151,0.091707
-0.052033,0.0047303,-0.087129,-0.13748,-0.15457,-1.3738,-0.95811,0.045624
-0.017243,-0.030671,-0.048981,-0.043488,0.1619,-0.41215,-0.11582,-0.015412
0.015106,-0.056611,-0.024567,-0.026703,0.077668,0.63005,0.12863,0.0056458
0.042267,-0.12161,0.0053407,0.014496,-0.038605,-0.061494,0.37736,-0.033722
0.020905,-0.10697,0.022431,-0.045319,-0.19028,0.35843,0.023041,-0.076753
0.037385,-0.10575,0.0035096,-0.10361,-1.1827,0.49027,-0.030976,-0.039216
0.041657,-0.15885,0.029755,-0.0047303,0.0065614,0.19852,0.079194,-0.041047
0.03769,-0.099641,-0.026398,-0.07126,0.33677,0.14359,0.012055,-0.085603
0.016632,-0.075837,-0.027924,-0.078584,0.2916,-0.10178,0.20493,-0.033722
-0.0047303,-0.059358,-0.052033,-0.027619,0.40726,-0.78538,0.30777,-0.020905
0.019684,-0.10575,-0.068818,-0.020294,0.38804,-0.22629,0.24613,-0.061494
-0.064851,0.035248,-0.14176,-0.18082,0.27237,-0.031891,-0.10208,-0.084382
-0.10941,0.060273,-0.13138,-0.14145,-0.85008,0.15305,-0.66911,-0.012665
-0.11154,0.038605,-0.098726,-0.092317,-0.036774,-0.052949,-0.37613,0.07126
-0.11063,0.059663,-0.12985,-0.11368,0.19821,0.17624,0.54063,0.11185
-0.084077,0.04715,-0.11215,-0.12039,-0.067903,0.67063,0.18082,0.12284
-0.082246,0.040436,-0.10086,-0.073701,-0.077058,-0.26871,-0.47471,0.047761
-0.066072,0.028534,-0.055695,-0.10727,0.22141,-1.1058,0.075227,0.076753
-0.014191,-0.0099184,-0.052644,-0.073396,0.10391,0.6389,0.5388,0.14847
-0.0044251,-0.090791,-0.018769,-0.019684,-0.041962,0.48508,0.30961,0.085908
0.012665,-0.098116,0.0016785,-0.098421,0.1265,-0.051423,-0.50614,-0.025177
0.023346,-0.13169,0.010529,-0.059358,-0.31418,0.23178,-0.62516,-0.050813
0.024262,-0.13962,0.005951,-0.026093,-0.30381,0.096895,0.38315,-0.016632
0.03006,-0.1442,0.00015259,0.0044251,0.26291,-0.16526,0.20493,-0.041047
0.020294,-0.083772,-0.022431,-0.042878,0.22446,-0.6743,0.015106,-0.082856
0.031586,-0.083772,-0.034943,-0.051118,-0.092927,-0.092012,-0.14054,-0.098116
-0.0019837,-0.070954,-0.062409,-0.060578,-0.11704,0.98985,-0.039826,-0.08896
-0.040742,-0.0044251,-0.10117,-0.13321,0.098421,0.47776,0.038911,-0.057527
-0.067903,0.019684,-0.092927,-0.11673,0.073396,-0.49577,-0.045624,0.0090028
-0.082856,0.050202,-0.11856,-0.08957,-0.057221,-0.3975,-0.010834,0.054475
-0.081941,0.061494,-0.11643,-0.1033,0.059663,-0.009308,0.023651,0.048981
-0.1033,0.058137,-0.11521,-0.11917,-0.010224,0.25437,0.13199,0.083772
-0.10239,0.051118,-0.099336,-0.10056,-0.083162,0.44877,0.34257,0.13016
-0.083772,0.041962,-0.103,-0.099336,-0.067903,0.20615,0.25132,0.13901
-0.057832,0.0016785,-0.062409,-0.095369,-0.00076295,0.49149,0.090181,0.10422
-0.019074,-0.029755,-0.030365,-0.091096,-0.168,-0.15671,-0.37186,0.093538
0.013886,-0.10056,0.0065614,-0.018769,-0.047761,-1.4611,-0.49668,0.037079
0.024872,-0.10086,0.01236,-0.024872,0.0056458,0.12863,0.17929,-0.0013733
0.045624,-0.14389,0.027924,0.01297,0.1622,0.074617,0.1973,-0.051423
0.032197,-0.11887,-0.0047303,-0.064851,0.45701,0.17319,0.34653,-0.048981
0.063935,-0.12863,-0.021515,-0.13596,0.33463,0.23362,0.57298,-0.014801
0.037385,-0.10971,-0.015717,-0.076753,-0.051118,0.023346,0.33677,-0.062104
0.013275,-0.076753,-0.036774,-0.067292,-0.16953,0.10483,-0.41672,-0.085603
-0.013275,-0.046235,-0.059968,-0.058747,-0.2388,0.59464,0.12833,-0.04654
-0.024262,-0.033722,-0.084382,-0.021515,0.34287,0.77745,-0.29007,-0.10971
-0.022126,0.026398,-0.13565,-0.026093,0.87266,0.094453,-0.22873,-0.08011
-0.093538,0.08011,-0.15,-0.20432,0.41947,-1.2425,-0.099947,-0.084077
-0.13993,0.059358,-0.11612,-0.21714,-0.99931,-1.2044,-1.1666,-0.063935
-0.11582,0.063325,-0.12345,-0.099336,-1.4003,0.86595,0.3563,0.20584
-0.076143,0.02182,-0.084077,-0.01297,-0.1799,0.69963,1.0561,0.21378
-0.081331,0.016327,-0.07187,-0.069734,-0.0972,-0.047456,0.18875,0.089265
-0.05539,-0.0056458,-0.047761,-0.093233,0.32364,-0.88273,-0.99077,-0.022736
-0.04715,-0.042573,-0.016632,-0.095064,1.0582,-0.20706,-0.94835,-0.067903
-0.0035096,-0.088655,0.0044251,-0.047456,0.29252,0.22141,-0.42069,0.015106
0.010529,-0.11612,0.0206,-0.017243,-0.327,0.309,0.39506,0.057527
0.032807,-0.11429,-0.0053407,-0.039216,0.017853,0.44144,0.47349,0.049897
0.035554,-0.11551,-0.011444,-0.060273,0.022126,0.5565,0.34287,0.027314
0.036164,-0.13779,-0.0019837,-0.036774,0.08835,-0.046235,0.2797,-0.027619
0.037079,-0.11673,-0.022126,0.0032044,0.066072,-0.64012,0.053254,-0.06363
0.020905,-0.077363,-0.061189,-0.082856,0.18509,-0.43809,-0.39628,-0.11521
-0.0071717,-0.0056458,-0.08835,-0.1149,0.036774,-0.59281,-0.13626,-0.10147
-0.027008,-0.0022889,-0.10025,-0.14115,-0.012055,0.2858,0.2153,-0.018769
-0.081941,0.066072,-0.11948,-0.12863,-0.099031,0.34928,0.18753,0.031891
-0.11521,0.078279,-0.12619,-0.12467,-0.49485,0.80888,0.27543,0.086519
-0.099031,0.04593,-0.096284,-0.04715,-0.4036,0.73442,0.41398,0.14603
-0.042573,-0.020294,-0.098116,0.0032044,0.062409,-0.077363,0.32853,0.1564
-0.08957,0.086519,-0.14298,-0.1735,0.7744,-0.99199,0.090181,0.096895
-0.072786,0.027314,-0.055085,-0.10391,-0.059052,-0.43687,0.040436,0.065766
-0.025483,-0.05539,-0.035554,-0.068818,0.18631,-0.30472,-0.4509,0.013275
-0.030671,-0.04654,-0.019684,-0.068208,0.096284,-0.13657,-0.92638,-0.074006
-0.0071717,-0.086519,0.014496,-0.068513,-0.066987,0.14084,0.0016785,-0.04654
0.025483,-0.12894,0.0053407,-0.015412,0.046235,0.49119,0.21714,0.013581
0.034943,-0.12161,0.0083925,-0.062409,0.034028,0.34073,0.058137,0.012055
0.067903,-0.15702,-0.017548,-0.069734,0.0065614,0.21836,0.25925,-0.025177
0.051118,-0.10056,-0.024872,-0.06302,-0.37522,-0.67887,0.045014,-0.10636
0.037995,-0.10544,-0.020294,-0.026093,0.086824,-0.41459,0.07126,-0.10575
0.063325,-0.092927,-0.041962,-0.034638,0.12039,0.32456,0.2208,-0.029145
0.0068666,-0.024262,-0.10208,-0.069734,-0.33158,0.074922,-0.29923,-0.042878
-0.039521,0.011444,-0.12436,-0.10086,-0.16342,-0.07187,-0.33402,-0.044709
-0.12009,0.034028,-0.13321,-0.11185,-0.099641,0.027924,0.29892,-0.041657
-0.16495,0.079194,-0.1268,-0.12375,-0.081331,-0.026398,-0.0032044,0.0013733
-0.17319,0.091096,-0.11337,-0.12863,0.35721,-0.15488,-0.32181,0.103
-0.17044,0.051423,-0.08957,-0.10056,0.1857,0.43778,0.1445,0.18692
-0.1442,0.051423,-0.10483,-0.12039,0.20768,0.22354,0.21561,0.17105
-0.10361,0.0047303,-0.055085,-0.10361,0.27298,-0.29099,0.21012,0.13809
-0.04715,-0.034943,-0.033112,-0.059358,0.21988,0.044099,0.47593,0.17929
-0.0028992,-0.078889,0.0077821,-0.0086976,-0.024567,0.11948,0.54887,0.15335
0.01297,-0.11368,0.005951,0.0019837,-0.31693,0.10941,0.43259,-0.022126
0.030365,-0.09659,-0.012665,-0.087739,-0.12589,0.022431,-0.2678,-0.18204
0.061494,-0.1326,0.020905,-0.039521,-0.77684,-0.17411,-1.0426,-0.14359
0.065156,-0.11765,-0.0099184,-0.048676,-0.041352,-0.13077,-0.59892,-0.026398
0.068208,-0.11398,-0.0053407,-0.12528,0.2974,0.40085,-0.15152,-0.038911
0.077363,-0.11093,-0.048066,-0.0032044,0.10697,0.54032,-0.18814,-0.065461
0.053559,-0.060273,-0.086519,-0.045624,0.51438,0.034028,0.0090028,-0.094148
0.011139,-0.02884,-0.093233,-0.087129,0.24063,-0.34104,0.11368,-0.14755
-0.044709,0.034333,-0.11307,-0.11032,-0.36942,-0.63462,0.088045,-0.081636
-0.08896,0.079194,-0.12222,-0.19059,-0.57328,0.3624,0.11276,0.045624
-0.069734,0.033417,-0.11032,-0.094759,0.050202,0.18967,0.066682,0.10452
-0.074617,0.044709,-0.099641,-0.087434,0.23087,-0.99382,-0.036774,0.043183
-0.09781,0.053559,-0.1033,-0.10697,0.10544,-0.22141,0.049592,0.055695
-0.095369,0.031281,-0.058442,-0.082246,-0.058747,0.67887,0.19394,0.11093
-0.037385,-0.025788,-0.04654,-0.044404,0.23484,-0.11765,0.088655,0.11582
-0.0068666,-0.058442,-0.034333,-0.034638,-0.12192,0.025483,0.19669,0.096895
-0.0062562,-0.061494,-0.023651,-0.065461,-0.08835,-0.0080873,0.10239,0.027008
-0.0065614,-0.08835,0.0035096,-0.078584,0.011139,0.30838,0.19181,-0.014801
-0.025483,-0.08896,0.012665,-0.097505,0.40482,0.15427,0.086824,-0.025788
0.005951,-0.12802,0.011444,-0.063325,0.13779,0.5684,-0.081025,0.0096132
0.017243,-0.13382,-0.02182,0.02945,-0.64073,0.53849,0.18845,0.061189
0.055695,-0.15427,-0.036774,0.038605,-0.019074,0.34226,0.58946,0.037995
0.030365,-0.08957,-0.051728,-0.10269,0.58488,-0.37156,0.062409,-0.1091
-0.018769,-0.043488,-0.059358,-0.0972,-0.24765,-1.7003,-0.16495,-0.15152
-0.060578,0.041657,-0.15152,-0.17685,0.35477,0.068818,-0.77684,-0.07126
-0.061494,0.031281,-0.11429,-0.078889,0.063325,0.421,-1.0103,-0.030365
-0.072175,0.042573,-0.11307,-0.11246,-0.43473,0.4448,0.46006,0.009308
-0.076143,0.067292,-0.11643,-0.10513,-0.030671,-0.15061,0.025483,0.023651
-0.065766,0.055085,-0.095369,-0.12863,0.40848,-0.62089,-0.002594,0.084077
-0.077974,0.057527,-0.1088,-0.121,-0.03769,0.22049,0.29648,0.12589
-0.053254,0.0010681,-0.052644,-0.020905,-0.28916,0.65629,0.24704,0.099641
-0.033112,-0.033417,-0.043183,-0.0047303,-0.11917,-0.057527,0.002594,0.043793
-0.040436,-0.08835,0.0019837,-0.03769,0.8217,-0.88151,-0.44846,-0.030365
-0.06302,-0.042878,-0.0206,-0.1387,-0.057527,0.19699,-0.0071717,0.041352
-0.014191,-0.14176,0.039826,-0.065461,-0.68864,0.51499,0.37339,0.10208
0.036774,-0.11978,-0.019074,-0.048981,-0.047456,0.24125,0.35477,0.072786
0.045624,-0.11582,-0.011749,-0.044709,0.18265,0.18997,0.33707,0.035554
0.035554,-0.11978,-0.023651,-0.054475,0.46891,-0.0050355,0.29221,-0.02884
0.04593,-0.121,-0.016938,-0.10788,0.25528,0.25406,-0.14481,-0.031281
0.0383,-0.08011,-0.061799,-0.016022,-0.10483,0.60166,0.12497,-0.045624
0.015717,-0.034943,-0.088045,0.021515,-0.47654,-0.37644,-0.31327,-0.10605
-0.063935,0.063325,-0.11337,-0.18418,0.048371,-0.72374,-0.1445,-0.16678
-0.086824,0.074006,-0.12741,-0.14755,-0.33249,0.26688,-0.23728,-0.13443
-0.089876,0.077363,-0.1323,-0.12558,-0.1265,-0.86931,-1.0973,-0.0041199
-0.074617,0.044404,-0.10147,-0.077058,0.23209,0.16831,0.3566,0.11551
-0.084993,0.041352,-0.10147,-0.070649,-0.215,0.002594,0.086519,0.11582
-0.12253,0.07126,-0.099641,-0.17105,0.019684,-0.088655,-0.030671,0.07248
-0.049287,-0.040436,-0.043183,-0.077668,0.21378,0.083162,-0.23026,0.096284
-0.040742,-0.045624,-0.027924,-0.0010681,-0.0013733,0.087739,-0.11734,0.071565
0.0013733,-0.074617,-0.0074769,-0.066682,0.0099184,0.27298,0.29404,0.08072
0.0010681,-0.10422,0.014801,-0.083772,0.16922,0.093233,0.38682,0.0010681
0.0041199,-0.10697,0.010529,-0.032807,-0.028229,0.17136,0.45823,-0.074922
0.038911,-0.13382,-0.00015259,-0.01236,-0.13993,-0.25742,0.10666,-0.073091
-0.0035096,-0.13199,-0.00015259,-0.043183,0.059968,-0.27573,-0.65019,-0.095979
-0.0010681,-0.11398,-0.027924,-0.052644,0.21286,-0.15824,-0.3035,-0.040742
0.010834,-0.098421,-0.040131,-0.073091,0.40116,-0.12497,0.26749,0.00076295
-0.009308,-0.021515,-0.092317,-0.092927,0.012665,0.48631,0.030365,-0.014801
-0.030976,-0.005951,-0.08011,-0.070649,-0.47837,0.22141,0.075837,0.0080873
-0.038911,0.029755,-0.11765,-0.10575,0.085298,-0.21195,0.13443,0.032197
-0.04593,0.035554,-0.1207,-0.08835,0.083467,0.7982,0.15488,0.053864
-0.053559,0.048676,-0.12894,-0.078279,0.020905,0.80003,0.12039,0.092622
-0.10758,0.08957,-0.1326,-0.17075,0.27146,-0.58976,0.027619,0.12039
-0.10117,0.060273,-0.095369,-0.12497,-0.30137,-0.90532,0.13321,0.11887
-0.020905,-0.015717,-0.054475,-0.061189,-0.16159,0.10483,0.11032,0.1207
-0.0383,-0.0056458,-0.062715,-0.085603,-0.21805,0.2739,-0.13626,0.077363
-0.051423,-0.016938,-0.029755,-0.087129,-0.26444,0.0795,-0.16648,0.072786
-0.0096132,-0.10971,0.019379,-0.047456,0.10636,-0.036469,0.098726,0.065766
0.028229,-0.13962,0.019684,-0.018463,0.34409,0.028534,0.1265,-0.075227
0.031281,-0.099641,-0.022736,-0.085298,0.18082,0.066377,0.081941,-0.15549
0.036164,-0.15244,0.0080873,-0.01236,-0.17807,0.073396,0.067292,-0.13077
0.056611,-0.121,-0.010224,-0.039521,0.10788,-0.063935,-0.21744,-0.16983
0.073396,-0.098421,-0.023957,-0.026093,0.23484,0.014496,-0.18265,-0.099336
0.0028992,-0.061799,-0.057832,-0.076753,0.24735,0.14878,0.31693,0.0035096
-0.029145,-0.072175,-0.035859,-0.044099,0.18631,0.29374,0.41978,0.0090028
-0.076753,0.012055,-0.1149,-0.066682,-0.32547,0.81193,0.69871,0.04715
-0.10391,0.08072,-0.1384,-0.1265,-0.68498,0.64591,0.38621,0.13077
-0.10819,0.081331,-0.13107,-0.15274,0.24735,-0.69413,-0.24308,0.10758
-0.069123,0.046235,-0.11765,-0.070649,0.22843,-0.11612,-0.51804,0.065156
-0.089876,0.033417,-0.11093,-0.10086,-0.2269,-0.26261,-1.2172,-0.061799
-0.090181,0.054475,-0.10422,-0.12192,-0.14969,-1.4617,-0.7454,-0.035248
-0.079194,0.037385,-0.069429,-0.098421,-0.020905,0.59129,-0.20554,-0.012665
-0.075532,-0.041352,-0.00076295,-0.085908,-0.053254,0.46769,0.53666,0.016938
-0.02121,-0.069734,-0.025483,-0.049287,0.26535,-0.44938,0.3505,0.098116
0.027314,-0.11948,-0.010834,-0.0047303,0.3154,-0.047761,0.17655,0.072175
-0.012055,-0.0795,-0.0022889,-0.092927,-0.16831,0.71305,-0.31174,-0.041962
0.053559,-0.14572,0.019684,-0.038605,0.15702,0.4567,0.099641,-0.018769
0.046235,-0.11093,0.0022889,-0.064851,0.22477,-0.18723,-0.099947,-0.018158
0.024872,-0.084077,-0.010529,-0.038605,-0.32334,0.10056,0.083772,-0.031281
0.067597,-0.15366,-0.036469,0.035248,-0.2446,0.0032044,0.3444,0.018158
0.051728,-0.097505,-0.063325,-0.11948,0.33768,-0.49882,-0.049287,-0.068208
-0.02121,0.013581,-0.10697,-0.13565,0.26627,-0.081941,-0.12619,-0.11917
-0.095369,0.059968,-0.12222,-0.12863,-0.32914,0.70726,0.048981,-0.073701
-0.092317,0.057527,-0.13565,-0.063325,-0.36362,0.27146,0.36454,0.095979
-0.085298,0.062104,-0.12985,-0.065156,0.22171,-0.21958,0.40879,0.13535
-0.091707,0.059358,-0.10361,-0.14481,0.82658,-0.83299,0.23911,0.06363
-0.084382,0.016632,-0.078889,-0.10666,-0.069123,-0.08835,0.047456,0.076753
-0.083162,0.031891,-0.094148,-0.0972,-0.52293,0.44083,-0.645,0.11582
-0.017548,-0.028534,-0.059968,-0.10849,-0.49119,0.22782,-0.085298,0.083467
-0.016632,-0.040131,-0.023041,-0.084382,0.22568,-0.56626,-0.12833,0.015717
-0.027619,-0.049592,-0.025483,-0.050507,0.83116,-0.21012,-0.20493,-0.024567
0.0056458,-0.098421,0.018158,-0.048371,0.23056,0.46952,0.24704,0.05539
0.037079,-0.14694,0.026398,0.024872,-0.13016,-0.0099184,0.12375,0.019989
0.055695,-0.12222,0.00076295,-0.022431,-0.68925,-0.38956,-0.084382,-0.034638
0.048066,-0.12039,0.0047303,-0.033417,0.30838,-0.91081,-0.10025,-0.11734
0.03769,-0.13474,-0.0044251,-0.082246,0.10849,0.46555,0.055695,-0.12619
0.0068666,-0.065461,-0.066987,-0.12802,-0.057832,0.12406,-0.064546,-0.11521
-0.00015259,-0.052949,-0.069123,-0.078584,-0.019379,0.10269,-0.059968,-0.035859
-0.025483,-0.016938,-0.096895,-0.068208,-0.059358,0.14145,0.083772,0.041962
-0.053254,0.02945,-0.1149,-0.067292,-0.014191,0.023041,0.029755,0.026093
-0.084382,0.04593,-0.12863,-0.088655,-0.023651,0.12009,0.058442,0.046235
-0.10605,0.063325,-0.12741,-0.14908,-0.046845,0.44144,0.14145,0.058442
-0.13199,0.080415,-0.11063,-0.13565,-0.069123,0.33646,0.15213,0.073701
-0.090791,0.036164,-0.092012,-0.08835,-0.094759,0.013275,0.069429,0.10849
-0.087434,0.037995,-0.074311,-0.091707,0.0065614,-0.80156,-0.19303,0.076753
-0.056001,-0.010224,-0.048676,-0.095369,0.0028992,0.27543,0.11032,0.061494
-0.048676,-0.062104,-0.0206,-0.070344,-0.057221,0.9575,0.37675,0.13993
-0.012665,-0.086824,0.0035096,-0.054475,0.18082,-0.16861,0.24796,0.10849
0.022736,-0.11826,0.027314,-0.024567,0.33371,-0.92729,0.16464,0.005951
0.041657,-0.1268,-0.014801,-0.018769,0.077363,0.90318,0.041047,-0.0053407
0.018769,-0.098726,0.0077821,-0.056916,0.11398,0.089265,-0.35294,-0.049287
0.027924,-0.11765,-0.0041199,-0.012055,-0.34104,-1.125,-0.35294,-0.041352
0.024872,-0.10544,-0.050507,-0.11368,-0.33921,-0.29557,0.23362,-0.047456
0.0096132,-0.07248,-0.040436,-0.12314,0.21653,0.5803,0.39078,-0.15702
-0.02121,-0.034638,-0.092622,-0.04715,0.009308,0.16678,-0.31724,-0.085298
-0.053559,0.022736,-0.1146,-0.074922,-0.2446,-0.66484,-1.2099,-0.034943
-0.089876,0.079805,-0.12619,-0.14908,0.3035,0.058137,-0.30137,0.022736
-0.11521,0.066682,-0.11917,-0.13687,-0.32975,1.0893,0.96086,0.16556
-0.059052,0.002594,-0.10086,-0.023651,0.063325,0.45304,1.2593,0.18845
-0.019379,0.036164,-0.12253,-0.08957,0.22873,0.3444,1.1809,0.11307
-0.037079,0.030671,-0.10117,-0.060578,-0.14023,-0.84428,-0.074617,-0.12406
-0.031586,-0.018158,-0.048676,-0.070954,-0.25467,-0.91844,-1.5758,-0.17288
-0.019379,-0.062104,-0.017548,-0.058747,-0.2858,0.24796,-1.4116,-0.10178
-0.053559,-0.0044251,-0.042573,-0.10758,0.32578,-0.30869,0.13413,-0.018463
-0.0022889,-0.10819,0.0077821,-0.074311,0.15213,0.44114,0.62089,0.087739
0.0010681,-0.10819,0.0096132,-0.054475,0.10269,0.36515,0.3975,0.063935
0.028229,-0.11582,-0.0074769,-0.089265,0.17288,0.065766,0.32853,0.053864
0.039521,-0.13046,0.00045777,-0.033112,0.009308,0.16587,0.16037,0.045014
0.029145,-0.11368,-0.01297,-0.016938,-0.27878,-0.18448,-0.036469,-0.026703
0.031891,-0.099947,-0.031891,-0.043488,0.059968,-0.62669,-0.074922,-0.024567
-0.023346,-0.04593,-0.066377,-0.082246,0.64073,-0.26963,-0.093843,-0.044404
-0.043488,-0.0016785,-0.097505,-0.086824,0.067597,0.61173,0.18723,-0.015717
-0.049592,0.011444,-0.10513,-0.080415,-0.095674,0.31907,0.19364,-0.012055
-0.054475,0.011444,-0.12253,-0.079805,0.046845,0.085298,-0.0065614,-0.027008
-0.085298,0.061189,-0.11704,-0.121,-0.37644,0.7335,0.090486,-0.030671
-0.083467,0.081331,-0.13321,-0.0972,-0.18845,0.46464,0.47837,0.042267
-0.10544,0.07187,-0.10819,-0.14694,0.32822,-0.41062,0.42313,0.1091
-0.10758,0.033722,-0.070344,-0.091707,-0.055695,0.11582,0.049897,0.12009
-0.056611,-0.025788,-0.046235,-0.059663,-0.84367,0.44388,-0.15305,0.18479
-0.022736,-0.046845,-0.029145,-0.037079,0.059968,-0.80949,-0.43259,0.066682
-0.0041199,-0.081941,-0.0080873,-0.036469,0.66331,-1.8245,-0.22873,-0.073091
0.00045777,-0.099336,0.0077821,-0.071565,0.14481,0.34653,0.81712,0.038911
0.010834,-0.10422,0.0022889,-0.10452,0.30777,0.89738,0.47135,0.018769
0.052338,-0.13352,0.0047303,0.034028,0.21714,-0.048066,-0.69963,-0.018463
0.084688,-0.13962,-0.026398,-0.02945,0.075837,-0.093538,-0.39261,-0.0096132
0.070344,-0.12985,-0.010834,-0.053254,-0.14359,-0.41459,-0.74174,-0.18296
0.030365,-0.094148,-0.03006,-0.068513,-0.27176,-0.36912,-1.3362,-0.19821
-0.023346,-0.050507,-0.0795,-0.056306,0.10666,0.45274,0.36149,-0.034943
-0.060578,0.019074,-0.11124,-0.15946,0.0050355,0.00076295,0.41733,0.053254
-0.081636,0.039826,-0.11246,-0.1149,-0.031281,0.13657,0.13046,0.061494
-0.090791,0.079194,-0.14298,-0.14145,-0.059358,0.34592,1.0173,0.084688
-0.074922,0.060273,-0.10147,-0.13291,-0.052644,0.45121,0.29557,0.046235
-0.064546,0.037995,-0.082246,-0.059358,0.066682,0.48295,-0.97002,0.028229
-0.08011,0.051728,-0.096895,-0.092317,0.17655,0.00015259,0.11673,0.081636
-0.068208,0.035554,-0.081025,-0.11185,0.084688,-1.1693,0.49393,0.074617
-0.059052,-0.035859,-0.042878,-0.027314,-0.50126,0.34928,-0.056001,0.053864
-0.049287,-0.036164,-0.026398,-0.11978,-0.29099,0.14115,-0.60777,0.016022
-0.025788,-0.074922,0.0041199,-0.042267,-0.041047,-0.081636,-0.65507,-0.026703
-0.014191,-0.094453,0.0044251,-0.061494,-0.098421,0.57328,0.52781,-0.048981
0.0074769,-0.12345,0.017853,0.0065614,-0.18357,-0.19669,0.53727,-0.051423
0.041657,-0.15061,0.0083925,-0.050813,0.035554,-0.8986,0.23697,-0.075837
0.032807,-0.10758,-0.032502,-0.064851,0.14603,0.45731,0.12802,0.005951
0.043793,-0.1326,-0.017548,-0.06424,0.40879,-0.11673,-0.25742,0.039826
0.02182,-0.081636,-0.060883,-0.060273,0.59709,-0.25101,0.39322,0.0383
-0.010224,-0.0074769,-0.08957,-0.08835,0.2092,0.0795,0.22385,-0.026703
-0.048676,0.022736,-0.10697,-0.067292,-0.33982,0.089265,-0.81926,-0.042573
-0.08896,0.036469,-0.094148,-0.066682,0.40757,0.14939,-0.52354,-0.055695
-0.089265,0.058442,-0.14878,-0.12802,-0.39872,-0.13138,0.2739,0.088045
-0.0972,0.081331,-0.1207,-0.11978,-0.072786,-0.44541,0.44236,0.1564
-0.074922,0.060273,-0.098726,-0.081636,-0.021515,-0.26474,0.24918,0.13931
-0.067597,0.033112,-0.098726,-0.17166,-0.07126,0.21775,0.15854,0.13169
-0.04715,0.013886,-0.064546,-0.082246,-0.017548,0.10605,0.1912,0.079805
-0.0050355,-0.068513,-0.0065614,-0.010834,-0.057832,0.15305,-0.13657,0.015412
-0.0022889,-0.059358,-0.03769,-0.030976,0.064546,0.14511,-0.27604,-0.054475
-0.012665,-0.068208,0.0022889,-0.092622,0.17624,0.18967,0.45609,-0.057527
0.019379,-0.089876,-0.010224,-0.08957,0.11063,-0.0041199,-0.27787,-0.051118
0.059663,-0.14023,0.018158,0.0035096,-0.21042,0.087434,-0.19608,-0.098116
0.13016,-0.17075,0.025788,0.02945,-0.016938,-0.36728,-0.059968,-0.103
0.049287,-0.11887,-0.02884,-0.121,0.065461,-0.26627,-0.51713,-0.12924
0.01297,-0.099336,-0.033112,-0.15457,0.0053407,0.59129,0.11185,-0.064546
-0.030671,-0.058747,-0.065156,-0.019684,-0.16007,1.2422,0.33768,-0.0062562
-0.035248,-0.026398,-0.091096,-0.048371,0.35966,0.54032,0.23026,0.0047303
-0.068208,0.0099184,-0.12528,-0.044404,0.11856,-0.80003,-0.033722,0.0080873
-0.097505,0.051728,-0.11917,-0.087129,0.19883,-1.1424,-0.28611,0.044404
-0.12131,0.06363,-0.12558,-0.18967,-0.48631,0.52445,0.034333,0.084077
-0.11978,0.066377,-0.11307,-0.11582,-0.15488,0.22629,0.13291,0.098421
-0.10361,0.057832,-0.10208,-0.10697,-0.094148,-0.010834,-0.015412,0.13382
-0.096284,0.052033,-0.094759,-0.08957,-0.21836,-0.95048,-0.21439,0.11368
-0.041352,-0.0080873,-0.032807,-0.045319,0.21469,-0.34806,-0.00045777,0.091402
-0.040436,-0.019684,-0.048066,-0.08957,0.030365,0.51347,0.37064,0.071565
0.022736,-0.10758,0.002594,-0.077363,0.017243,0.068208,0.35874,0.018158
0.019989,-0.12558,0.027314,-0.05417,-0.121,-0.0795,-0.1622,-0.02884
0.02884,-0.1326,-0.0016785,-0.045624,-0.074617,-0.056306,-0.65324,-0.078889
0.025788,-0.12589,0.010529,-0.033112,0.46891,-0.11795,-0.14633,-0.14847
0.0383,-0.14145,-0.00076295,-0.0090028,0.24949,0.45975,0.40391,-0.093538
0.040131,-0.093538,-0.041657,-0.092622,-0.19974,0.72709,-0.011444,-0.0074769
0.040131,-0.093843,-0.04593,-0.025177,0.070039,-0.035859,-0.23178,-0.010224
-0.029755,-0.0383,-0.073396,-0.058137,0.24155,-0.2855,-0.037385,-0.069734
-0.073091,0.018158,-0.077974,-0.085603,0.25101,-0.90288,0.040436,-0.02884
-0.059358,0.016327,-0.12528,-0.083772,-0.32639,0.11948,0.088655,0.041352
-0.08957,0.082551,-0.14176,-0.19486,-0.56901,0.1976,0.077974,0.091707
-0.078889,0.056001,-0.12222,-0.14115,0.041352,-0.12863,0.15122,0.14817
-0.091707,0.063325,-0.10483,-0.085603,0.098421,0.46006,0.33371,0.12802
-0.077974,0.043183,-0.086519,-0.13535,0.23453,0.5452,0.38499,0.11246
-0.082246,0.043183,-0.081331,-0.093538,-0.048676,0.56596,0.49607,0.093843
-0.052644,-0.025788,-0.052644,-0.048981,-0.16434,0.39719,-0.27115,0.00076295
-0.026398,-0.073396,-0.015412,-0.021515,0.012055,-0.77928,-0.86046,0.0010681
-0.016327,-0.078584,-0.0053407,-0.039521,0.15427,-1.3478,0.35264,0.0028992
0.0056458,-0.12039,0.021515,-0.0074769,0.081331,0.50126,-0.16861,-0.022431
-0.0080873,-0.08835,-0.0068666,-0.11185,-0.017548,0.28458,-0.57053,-0.039521
0.028229,-0.12406,-0.00045777,-0.053254,-0.045319,0.083162,0.29831,0.010834
0.039826,-0.11032,-0.0019837,-0.052949,-0.077668,0.05417,0.25498,0.0032044
0.02884,-0.098116,-0.034028,-0.060578,0.17716,0.39963,0.17075,-0.052033
0.038911,-0.08957,-0.053254,0.0028992,0.12955,1.0503,0.41489,0.0038148
0.02884,-0.059968,-0.073091,-0.079805,0.15732,0.42863,0.63066,-0.019684
-0.0053407,-0.0065614,-0.11337,-0.11246,0.075532,0.0038148,-0.10208,-0.039826
-0.051423,0.035554,-0.12467,-0.10086,-0.78172,-1.3716,-1.1354,-0.030365
-0.084993,0.077668,-0.12345,-0.10178,0.21073,-0.83909,0.0053407,-0.035859
-0.06363,0.04715,-0.11704,-0.083467,0.089876,0.64469,0.65324,-0.013581
-0.08896,0.040131,-0.10056,-0.10575,0.20676,0.11002,0.012665,-0.032807
-0.10422,0.044404,-0.081025,-0.14694,0.80613,-0.10147,-1.3313,-0.085908
-0.062715,0.025483,-0.077058,-0.098421,-0.053864,-0.055085,-0.663,0.040131
-0.039826,-0.046235,-0.036774,-0.060273,-0.63493,-0.039826,0.34287,0.05539
-0.010529,-0.065461,-0.0013733,-0.02945,-0.54795,-0.33371,-0.36881,0.011139
-0.00076295,-0.091707,-0.011444,-0.055695,-0.27054,0.12375,0.4802,0.013886
0.039216,-0.14755,0.017243,0.0013733,0.25925,0.15763,0.48753,0.043488
0.012055,-0.10941,0.0019837,-0.073701,0.16526,0.058747,0.23545,0.0019837
0.02121,-0.14694,0.011444,-0.089876,0.10208,0.053559,0.28397,-0.0053407
0.0071717,-0.087434,-0.02884,-0.060578,0.073701,0.045624,0.36606,-0.029755
0.02182,-0.096284,-0.034028,-0.040436,0.070344,0.23545,-0.15946,-0.086213
-0.0047303,-0.052033,-0.070954,-0.065156,0.096284,0.21134,-0.86229,-0.095674
-0.025483,-0.02884,-0.10208,-0.11154,0.079805,0.095064,0.053254,-0.0019837
-0.043183,0.02121,-0.11704,-0.08896,0.049287,-0.27024,0.22538,0.045624
-0.075227,0.057832,-0.12222,-0.11063,-0.034638,-0.30259,0.031586,0.057221
-0.11002,0.075227,-0.11551,-0.13077,0.019989,0.087129,0.10819,0.087434
-0.091096,0.058137,-0.10971,-0.048981,-0.092012,0.062104,0.1207,0.15091
-0.087434,0.053864,-0.10971,-0.085908,-0.0056458,0.35477,0.033722,0.099947
-0.090791,0.055695,-0.092622,-0.17655,-0.27543,0.57389,0.03006,0.10422
-0.057527,0.0074769,-0.05478,-0.11765,-0.47044,0.0071717,0.22416,0.16007
0.016938,-0.084382,-0.023651,0.030671,-0.15152,-0.5565,0.23484,0.086824
0.016938,-0.08957,-0.0053407,-0.026093,0.66178,-0.91051,0.024872,-0.057221
0.024872,-0.11185,-0.0047303,-0.13199,0.65385,-0.23728,-0.0972,-0.054475
0.033112,-0.12039,-0.0019837,-0.058442,-0.25132,0.10971,-0.26474,0.017243
0.0383,-0.11795,0.0077821,-0.0050355,0.0016785,-0.2504,-0.40421,-0.029145
0.039216,-0.14084,0.017548,-0.0062562,0.090791,0.62669,0.22019,-0.057527
0.014801,-0.11398,-0.029145,-0.055085,0.28977,0.55039,0.56596,-0.043183
0.00045777,-0.081941,-0.048371,-0.08072,0.25193,0.15396,0.43412,0.00045777
-0.042878,-0.037385,-0.081331,-0.086824,-0.4976,-0.34714,-0.15366,-0.057832
-0.043183,0.0044251,-0.10605,-0.009308,-0.73564,0.028229,-0.60136,-0.15
-0.059968,0.028229,-0.11856,-0.086824,0.43076,0.66209,0.59342,-0.089265
-0.13931,0.14817,-0.16159,-0.29191,0.55406,0.64591,0.35477,-0.079805
-0.10941,0.040436,-0.094759,-0.087129,-0.89067,0.18387,0.058137,0.12192
-0.051118,0.014496,-0.11765,-0.042878,-0.14542,-1.2969,-0.073091,0.13596
-0.069123,0.026703,-0.08957,-0.13901,0.86259,-0.57481,-0.94774,0.010834
-0.10697,0.017853,-0.074922,-0.081025,0.54551,0.28855,-1.3194,-0.0090028
-0.087739,-0.013581,-0.0383,-0.10117,-0.2446,0.32029,0.25528,0.13687
-0.05539,-0.056916,-0.02182,-0.017548,0.023041,0.02121,0.37613,0.15152
0.0065614,-0.090791,0.0099184,-0.039521,-0.26902,0.061494,0.10758,0.034943
0.085908,-0.11032,-0.00015259,-0.033417,-0.4448,0.064851,0.13809,0.0065614
0.083772,-0.11856,-0.0013733,-0.061799,0.10605,0.048371,0.091402,-0.0044251
0.056306,-0.12558,0.016022,-0.060578,0.18326,0.052644,0.10361,-0.056611
0.048066,-0.12406,0.005951,-0.016632,-0.11002,0.098726,0.11582,-0.04654
0.028229,-0.12009,-0.026703,-0.057527,-0.042573,0.039521,0.029755,-0.076753
0.0013733,-0.056611,-0.06424,-0.10544,0.13504,-0.036164,-0.039216,-0.10208
-0.022736,-0.016632,-0.066987,-0.048676,0.062409,0.0047303,-0.0074769,-0.057832
-0.020294,-0.027924,-0.092317,0.0047303,0.019074,0.067597,0.061799,-0.0206
-0.065156,0.041962,-0.14542,-0.15854,0.059663,0.019989,0.11673,0.0041199
-0.089876,0.062409,-0.11063,-0.18723,0.09781,-0.064546,0.35233,0.065156
-0.12558,0.069123,-0.1265,-0.12589,0.0056458,0.090486,0.50614,0.091707
-0.11551,0.062104,-0.10666,-0.098726,-0.095064,-0.070344,0.048371,0.091402
-0.11521,0.070649,-0.11612,-0.11154,-0.44846,-0.099947,-0.78752,0.027924
-0.081025,-0.0077821,-0.035859,-0.074617,-0.4683,0.11582,-0.11002,0.063325
-0.029145,-0.047761,-0.040742,-0.066377,0.32425,0.32914,0.41001,0.13413
-0.0068666,-0.077363,-0.017853,-0.019379,0.35874,0.0206,0.12619,0.04593
-0.0047303,-0.076448,-0.0065614,-0.10666,0.75669,-0.2446,0.10147,-0.010224
0.027314,-0.11582,0.027314,-0.020905,-0.064546,-0.7219,-0.50828,0.0013733
0.093538,-0.1735,0.0047303,0.02884,-0.67735,-0.32914,-0.63432,0.055085
0.057527,-0.11826,-0.014496,-0.078584,0.47898,0.093843,0.02945,-0.023346
0.040131,-0.12009,-0.016938,-0.074922,0.26413,0.41245,0.043183,-0.093843
0.0038148,-0.081636,-0.031586,-0.055085,-0.57969,0.25803,0.24552,-0.060883
-0.023041,-0.031891,-0.068818,-0.084993,-0.15824,0.039521,0.20401,-0.087434
-0.038605,0.013275,-0.094148,-0.10452,-0.010834,-0.0019837,0.017243,-0.058747
-0.031586,-0.018769,-0.10941,-0.043183,0.31601,-0.016327,-0.13199,-0.030365
-0.081941,0.059358,-0.13657,-0.15,0.55802,0.06363,0.21897,-0.050507
-0.087129,0.062104,-0.1091,-0.11795,0.38132,-0.037995,-0.16831,0.002594
-0.087129,0.024567,-0.087129,-0.028229,-0.3566,0.093843,-0.56046,0.025483
-0.12161,0.066377,-0.10483,-0.13962,-0.95262,0.012665,0.21988,0.041657
-0.11948,0.07126,-0.098726,-0.13535,0.15061,0.042573,0.78447,0.17563
-0.071565,-0.00045777,-0.064546,-0.10666,-0.031586,1.1781,0.93095,0.24552
0.015412,-0.069429,-0.020294,-0.035248,-0.10361,0.80186,0.29953,0.15518
0.015412,-0.087434,-0.0062562,-0.03006,0.32731,-0.57847,-0.84031,-0.094148
0.022736,-0.11551,0.0041199,-0.038911,0.45518,-2.0693,-0.93034,-0.15671
0.0096132,-0.103,-0.012055,-0.051423,0.27543,-0.35172,-0.37156,-0.087129
0.016632,-0.10544,-0.0016785,-0.079194,-0.26749,1.0536,-0.18326,-0.040742
0.031586,-0.11856,-0.00045777,-0.079805,-0.45853,0.14115,0.16556,-0.014191
0.051423,-0.13657,-0.00045777,-0.0071717,0.0096132,0.16403,0.28672,-0.0044251
0.044099,-0.095979,-0.048676,-0.057527,0.10544,0.06424,0.19913,-0.0019837
-0.011444,-0.048981,-0.070039,-0.061189,-0.43992,-0.43961,-0.042573,-0.061189
-0.010529,-0.029755,-0.097505,-0.047456,0.12284,-0.08011,0.009308,-0.0010681
0.0016785,0.059663,-0.12863,-0.168,0.54459,-0.22141,0.056001,0.0038148
-0.075837,0.07126,-0.13748,-0.12924,-0.19669,0.54704,0.15518,0.03006
-0.099031,0.058442,-0.12375,-0.0972,-0.078279,0.065766,0.13809,0.071565
-0.1268,0.04654,-0.094453,-0.086824,0.1323,-0.21744,-0.023651,0.057832
-0.10575,0.048371,-0.085908,-0.039216,0.02884,-0.025483,-0.10697,0.030365
-0.079194,0.0053407,-0.077974,-0.083162,-0.15152,-0.0068666,-0.16709,-0.034638
-0.013275,-0.027924,-0.048981,-0.16403,0.014801,-0.25864,-0.011139,0.036164
-0.0071717,-0.067903,-0.016632,-0.10788,0.15396,0.099336,0.33005,0.082246
-0.025177,-0.066072,-0.005951,-0.037385,0.13016,0.33616,0.43717,0.070649
-0.017243,-0.085908,0.026398,0.011749,-0.37125,0.08072,0.34684,0.072175
0.035859,-0.14176,-0.011749,-0.011139,-0.38987,-0.22019,0.27054,0.035248
0.030976,-0.14939,-0.002594,-0.091096,0.21317,-0.58427,-0.40024,-0.11917
-0.024262,-0.098116,-0.0041199,-0.099641,0.645,0.018158,-1.086,-0.1384
-0.052033,-0.074922,-0.012055,-0.0383,-0.039521,0.421,-0.29923,0.077363
-0.025788,-0.060578,-0.068208,-0.016632,-0.13962,0.093843,0.36698,0.15305
-0.038605,-0.024872,-0.070649,-0.049592,0.46708,-0.067597,0.25711,0.065766
-0.033417,-0.014801,-0.121,-0.081025,0.0010681,0.42924,0.39719,0.027008
-0.036469,0.0383,-0.1326,-0.13382,-0.51164,0.56474,0.49729,-0.00076295
-0.08072,0.04593,-0.10971,-0.13962,-0.013581,-0.55741,-0.22293,-0.11032
-0.075837,0.044099,-0.10605,-0.12131,-0.1265,-0.53544,-0.66545,-0.027314
-0.082246,0.074617,-0.11734,-0.10117,-0.13321,0.49638,-0.037079,0.059358
-0.067903,0.067292,-0.11521,-0.088655,-0.16587,0.30106,0.15274,0.13382
-0.0028992,-0.057832,-0.029755,-0.026093,0.094453,0.33188,0.06302,0.091402
-0.017548,-0.05478,-0.044709,-0.090486,0.82872,-0.65263,-0.26474,-0.049592
-0.02945,-0.029755,-0.029755,-0.11887,0.019989,-0.1738,0.08072,-0.0083925
0.005951,-0.10452,-0.0068666,-0.043183,-0.64836,0.0099184,0.46098,0.06363
0.035248,-0.1149,0.013581,-0.062715,0.032197,0.57481,0.44511,-0.0062562
0.017548,-0.092622,0.00076295,-0.051118,-0.049592,-0.20035,-0.012665,-0.079194
0.033722,-0.14145,0.013886,-0.00076295,-0.035859,-0.94469,-0.10422,-0.11185
0.027924,-0.13962,-0.0062562,-0.025177,0.34684,0.41184,0.084077,-0.076143
0.021515,-0.086519,-0.045624,-0.031281,0.44999,0.10544,-0.7216,-0.067292
-0.0053407,-0.034943,-0.074922,-0.10239,-0.1619,0.31876,-0.20188,-0.049287
-0.029145,-0.009308,-0.10208,-0.11521,-0.55619,-0.4741,0.46525,-0.035859
-0.045014,0.029145,-0.13352,-0.15061,0.09781,-0.60716,-0.21622,-0.040436
-0.04715,0.024262,-0.094759,-0.082551,0.59129,0.13382,-0.55741,-0.019074
-0.025483,0.047456,-0.11978,-0.077058,0.56565,0.32273,0.044099,0.005951
-0.079194,0.063325,-0.1265,-0.12985,0.23392,0.28367,0.5507,0.02182
-0.093233,0.056001,-0.11734,-0.086824,-0.64591,-0.07187,0.33371,0.088655
-0.098116,0.029145,-0.076143,-0.066987,-0.69749,-0.73045,-0.22629,0.096895
-0.097505,-0.00076295,-0.053864,-0.10758,-0.073396,0.23575,-0.55558,0.0065614
-0.11124,-0.010224,-0.034943,-0.11673,-0.15396,0.23209,0.042267,0.031586
-0.057832,-0.08835,-0.0019837,0.0050355,0.15457,0.030365,0.41337,0.083467
-0.010834,-0.10697,0.01236,-0.02945,0.17075,0.081331,0.27604,0.095369
0.027008,-0.121,0.012055,-0.10727,0.12314,-0.027924,-0.50095,0.053864
0.057527,-0.12955,-0.00045777,-0.05417,0.0068666,0.038605,-0.094148,0.016022
0.067597,-0.12772,-0.019074,-0.028534,0.084382,0.060578,0.31418,-0.01297
0.030365,-0.12222,-0.0016785,-0.012665,-0.033417,0.078584,0.33036,-0.0062562
0.024872,-0.10452,-0.058747,-0.058137,-0.027619,0.066377,0.35416,0.02182
0.01297,-0.053864,-0.075837,-0.089265,0.12406,-0.13687,-0.067292,-0.059358
-0.010224,-0.024567,-0.095369,-0.12772,-0.069123,-0.11856,0.31205,-0.067903
-0.042573,0.013581,-0.1149,-0.081025,0.15824,-0.0032044,-0.3444,-0.10513
-0.089265,0.087129,-0.1326,-0.13748,0.059358,0.34653,-1.1238,-0.087739
-0.087739,0.077668,-0.13046,-0.14328,-0.14603,-0.31144,0.13718,0.051423
-0.10513,0.065461,-0.10056,-0.081331,-0.36515,-0.073396,0.2562,0.10391
-0.073091,0.034028,-0.088655,-0.066682,0.0053407,0.309,0.21469,0.078279
-0.10208,0.044404,-0.092622,-0.11368,0.20249,-0.26566,-0.041047,0.039826
-0.057221,-0.019684,-0.038605,-0.073091,-0.19486,0.16434,-0.32395,0.063325
-0.020905,-0.08072,-0.0056458,-0.052644,-0.087434,0.14878,0.087434,0.081941
0.0041199,-0.061799,-0.014801,-0.13107,-0.0028992,-0.020294,0.12894,0.087434
0.026093,-0.10086,0.015412,-0.031281,-0.10147,0.31632,0.37339,0.062409
0.052338,-0.1619,0.016022,0.010529,-0.081025,0.5919,0.53025,0.0077821
0.089876,-0.16983,-0.0013733,0.0016785,-0.029755,-0.42374,0.037385,-0.086213
0.04593,-0.11734,-0.014801,-0.069734,0.55863,-0.58152,-0.27268,-0.15091
0.026093,-0.085908,-0.041047,-0.058137,0.56779,-0.5864,-0.57359,-0.13809
-0.0044251,-0.044709,-0.070649,-0.10788,-0.010529,-0.14878,-0.37308,-0.082246
-0.022736,-0.058442,-0.061799,-0.08072,-0.018769,0.062715,0.087434,-0.051423
-0.064851,0.022736,-0.1091,-0.099947,0.10849,0.15366,0.15824,-0.0056458
-0.069429,0.024567,-0.11856,-0.064546,0.14023,0.0795,0.24796,0.077668
-0.081636,0.038605,-0.10605,-0.094453,-0.092317,-0.08957,0.21286,0.084382
-0.1323,0.10025,-0.13504,-0.13291,-0.62821,-0.094453,0.17136,0.055695
-0.1442,0.11643,-0.17166,-0.18692,0.023041,-0.1912,0.3743,0.13596
-0.082856,0.017243,-0.073396,-0.1326,0.14084,0.75975,0.12711,0.17533
-0.018769,-0.036774,-0.033112,0.031891,-0.19242,0.52323,-0.44297,0.10605
-0.026703,-0.047456,-0.028229,-0.01297,0.10056,0.32609,0.25162,0.0050355
-0.0096132,-0.086213,-0.0038148,-0.095369,-0.13199,0.091402,-0.12345,-0.058137
-0.027619,-0.061494,-0.0047303,-0.092622,-0.39597,-1.0652,-0.39933,0.02121
0.013886,-0.11246,0.015717,-0.082246,-0.045319,-0.49668,0.15335,0.051728
0.025788,-0.13382,0.0047303,-0.033112,0.61204,0.42039,0.033722,0.018158
0.037995,-0.13199,-0.010834,-0.016022,0.21378,-0.10575,-0.098116,-0.043488
0.012055,-0.093538,-0.023957,-0.075837,-0.38071,0.014496,-0.22629,-0.049287
0.0016785,-0.083772,-0.035859,-0.069734,0.078584,0.18601,-0.067292,-0.059663
-0.0071717,-0.045624,-0.068513,-0.075837,0.23178,-0.29923,0.15091,-0.045014
-0.034638,-0.01297,-0.081025,-0.05417,0.31662,-0.65934,-0.0032044,-0.059968
-0.031586,-0.002594,-0.10422,-0.061494,0.062104,0.46128,0.22568,0.010529
-0.075227,0.03006,-0.12161,-0.16953,-0.023651,-0.10941,0.32395,0.047456
-0.088045,0.062409,-0.13107,-0.13718,-0.063325,-0.017243,0.22934,0.056306
-0.057221,0.047456,-0.121,-0.055085,-0.0972,0.8574,-0.041047,0.090181
-0.064851,0.056611,-0.103,-0.098421,-0.48142,0.68528,-0.25254,0.026703
-0.056001,0.038605,-0.091096,-0.07248,-0.41428,0.060273,0.12222,0.0035096
-0.031586,-0.018769,-0.057832,-0.094453,-0.056611,-0.77256,-0.42924,0.07187
-0.024567,-0.02945,-0.037079,-0.068208,0.17533,-0.38987,0.19028,-0.016327
-0.014496,-0.068208,0.002594,-0.052949,0.31418,-0.45182,-0.014496,-0.037385
0.018158,-0.103,0.01236,-0.093843,0.31846,0.002594,-0.0096132,-0.0019837
0.055085,-0.16373,0.034333,-0.038911,-0.21622,0.71946,0.16037,-0.046845
0.047761,-0.13962,-0.019684,-0.0090028,-0.68864,0.33829,-0.39261,-0.10208
0.02121,-0.10269,-0.013581,-0.036774,-0.44205,-0.23209,-0.15763,-0.12039
0.013581,-0.08072,-0.034028,-0.017243,0.7747,-0.33768,0.13993,-0.042573
-0.0035096,-0.05478,-0.052949,-0.086519,0.39994,0.39231,0.18906,0.02945
-0.019684,-0.018769,-0.074006,-0.078279,0.72404,-0.72343,-0.050507,-0.023041
-0.052644,0.009308,-0.1033,-0.11734,0.44297,-0.30198,0.03006,0.032807
-0.069123,-0.013886,-0.081331,-0.12558,-0.24949,0.34867,0.19547,0.087434
-0.092927,0.074617,-0.13779,-0.12131,-0.15976,0.12528,0.13535,0.11307
-0.093233,0.069123,-0.11337,-0.11337,-0.085908,0.050202,-0.25986,0.036164
-0.083162,0.034028,-0.10605,-0.064851,-0.00045777,0.0010681,-0.5034,0.021515
-0.10788,0.041352,-0.1033,-0.12528,-0.0086976,0.045319,0.068513,0.031281
-0.087129,0.0062562,-0.076448,-0.094453,-0.30198,0.077363,0.39322,0.03769
-0.060883,-0.036164,-0.048981,-0.059052,-0.31876,0.027924,0.062409,0.09659
-0.051728,-0.036164,-0.020294,-0.083467,0.24491,-0.051423,0.11429,0.043488
-0.026398,-0.062104,-0.013886,-0.057527,-0.15,0.033112,0.25162,0.016632
0.021515,-0.13565,0.00015259,-0.02945,-0.077668,0.062104,-0.065156,0.0016785
0.03769,-0.1088,-0.00015259,-0.088655,0.13779,0.066377,0.0035096,0.056306
0.065156,-0.16739,0.035554,0.050202,0.097505,0.022736,0.22873,0.018769
0.035554,-0.121,-0.041657,-0.075837,0.049287,0.23545,-0.4155,-0.045624
0.03769,-0.12039,-0.0044251,-0.069734,-0.016938,0.3032,-0.2565,-0.059052
0.011749,-0.049592,-0.054475,-0.050202,-0.0090028,0.19303,0.12772,-0.057527
-0.015106,-0.014191,-0.087129,-0.0795,0.20035,-0.49821,0.17929,-0.1033
-0.04715,0.0077821,-0.098421,-0.096284,0.50401,-0.39536,0.27665,-0.052644
-0.054475,0.027619,-0.1207,-0.077058,-0.34592,-0.018158,-0.023346,0.019379
-0.067292,0.056001,-0.11887,-0.08835,-0.66239,-0.15915,-0.10971,0.055085
-0.070649,0.067597,-0.14572,-0.11093,0.10147,0.12741,0.11765,0.06363
-0.07187,0.047761,-0.08896,-0.092317,0.04593,0.40421,0.28885,0.085908
-0.050507,0.027619,-0.088655,-0.050202,-0.009308,0.17319,-0.50645,0.069734
-0.02945,0.015412,-0.073396,-0.20432,0.090791,-0.41062,-0.58518,0.054475
-0.06302,-0.025788,-0.030365,-0.076448,-0.027314,-0.75608,0.26963,0.10239
-0.067903,-0.044404,-0.027924,-0.082856,-0.040436,0.24033,0.11185,0.081331
-0.027008,-0.094453,0.021515,-0.039216,0.17136,0.71611,0.17044,0.023651
-0.0022889,-0.099641,0.0016785,-0.009308,0.10575,0.57389,0.26993,0.0019837
-0.041962,-0.13413,0.0099184,-0.039216,0.0074769,-0.60929,0.037385,-0.037385
-0.0083925,-0.1445,-0.0056458,-0.025177,-0.08835,0.10941,-0.14267,-0.045319
-0.00045777,-0.092317,-0.025788,-0.043183,-0.18692,-0.016022,0.12253,-0.026398
0.013275,-0.09659,-0.032197,-0.046845,0.33616,-0.51377,0.36271,-0.011444
0.030365,-0.074922,-0.067903,-0.066682,0.0038148,0.016938,0.23331,-0.027619
0.021515,-0.027924,-0.098116,-0.098726,-0.31113,0.012665,0.26139,0.014191
-0.027314,0.045319,-0.12863,-0.11551,0.645,0.11185,0.14786,-0.032502
-0.020294,0.027314,-0.1265,-0.0972,-0.13718,0.37919,-0.3566,-0.049897
-0.059358,0.058442,-0.11246,-0.12863,-0.38376,-0.14572,-0.76188,-0.10208
-0.072786,0.056611,-0.11093,-0.075227,0.12558,0.002594,-0.82444,-0.070649
-0.062104,0.039826,-0.08896,-0.092927,-0.042573,0.085298,0.35142,0.075837
-0.077058,0.038605,-0.072175,-0.093233,0.061494,0.099641,0.22263,0.014801
-0.048981,0.0016785,-0.064546,-0.09781,0.14878,-0.55833,-0.30716,0.034028
-0.02121,-0.078279,-0.019074,-0.077058,0.14694,-0.087739,0.28672,0.094453
-0.022736,-0.06424,-0.026703,-0.1207,0.010834,0.41978,0.21286,0.064546
0.031586,-0.13138,0.017548,-0.0050355,-0.47868,0.22019,-0.2916,0.04715
0.024872,-0.10697,0.0041199,-0.060273,-0.21836,-0.2327,-0.010224,-0.041047
0.060578,-0.12436,0.02182,-0.063325,0.46525,-0.58122,0.01297,-0.04715
0.079194,-0.15763,0.0032044,0.015412,-0.009308,0.034638,0.049287,-0.052644
0.019684,-0.088655,-0.032197,-0.045319,0.30869,0.13138,0.086824,-0.10208
-0.011139,-0.071565,-0.070954,-0.075227,0.28855,0.76402,0.14298,-0.034638
-0.040436,-0.023651,-0.066072,-0.098726,-0.19028,0.40024,0.29129,0.052949
-0.056611,0.0080873,-0.097505,-0.092927,0.13565,-0.9691,0.072175,0.08072
-0.074922,0.042573,-0.1149,-0.10636,0.067597,-0.19211,-0.16159,0.057527
-0.05478,0.025788,-0.12039,-0.072786,-0.24002,0.23667,-0.085908,0.037385
-0.081636,0.07248,-0.12924,-0.10971,-0.45151,0.13565,0.24826,0.050507
-0.10605,0.077363,-0.11856,-0.14206,-0.61295,0.663,0.58335,0.11673
-0.085298,0.042573,-0.092317,-0.061494,-0.30808,0.27695,0.71092,0.17777
-0.072175,-0.0013733,-0.053254,-0.060578,0.36973,-0.26566,0.25162,0.084688
-0.050507,-0.026093,-0.027924,-0.11704,0.98833,-0.76555,-1.0347,-0.040742
-0.037385,-0.031891,-0.033722,-0.07126,0.31815,-0.085298,-1.2624,-0.061494
-0.047456,-0.069734,0.0035096,-0.058442,-0.017548,-0.02884,0.19059,-0.059052
-0.045319,-0.090486,-0.0019837,-0.086824,-0.07126,0.032502,0.18967,-0.066682
0.034028,-0.14817,0.033417,0.013275,-0.060883,0.095064,0.13809,-0.026398
0.049287,-0.14359,-0.00015259,-0.027314,-0.13931,0.0062562,0.16403,-0.010529
0.036774,-0.12009,-0.024262,-0.031586,0.15488,-0.15366,0.074617,-0.052949
0.027619,-0.10391,-0.017853,-0.099031,0.030365,0.03006,0.052338,-0.049897
-0.019379,-0.049897,-0.073091,-0.11948,-0.31998,0.49912,0.026703,-0.03769
-0.028534,-0.013886,-0.0972,-0.0795,-0.65904,0.18631,-0.024262,0.029145
-0.05478,0.016022,-0.087129,-0.07248,-0.1973,-0.17807,0.021515,0.081331
-0.075837,0.051118,-0.12955,-0.074311,0.12497,-0.062104,0.0065614,0.0795
-0.077668,0.033722,-0.11154,-0.094453,0.40452,-0.04715,0.03006,0.076753
-0.063325,0.026398,-0.11337,-0.089265,0.28,0.39414,0.080415,0.085603
-0.10056,0.085908,-0.12436,-0.17136,0.3679,0.66087,0.16434,0.06424
-0.092927,0.047456,-0.095369,-0.080415,-0.19791,0.15366,0.067292,0.09659
-0.052949,0.0083925,-0.059052,-0.072175,-0.598,-1.1141,-0.085298,0.073396
0.029145,-0.10208,-0.042267,-0.040131,-0.1445,-0.19181,0.055695,0.013886
0.059968,-0.08957,-0.0068666,-0.040742,0.72587,0.12192,0.0077821,-0.042878
0.035859,-0.081941,-0.010529,-0.055085,1.1153,-1.0301,-0.26169,-0.084382
0.037079,-0.13199,0.024262,-0.00015259,-0.21805,0.5214,0.037995,-0.00076295
-0.0068666,-0.094148,-0.014191,-0.14298,-0.43076,0.25284,0.091707,-0.028534
0.025483,-0.121,0.0032044,-0.047456,0.063325,0.07126,0.043183,-0.009308
0.056306,-0.14359,-0.024262,0.033112,-0.16861,0.18387,0.060578,-0.057221
0.002594,-0.077974,-0.037079,-0.10758,0.016632,-0.042878,0.021515,-0.13565
-0.026703,-0.034333,-0.05417,-0.14755,-0.099031,0.10483,0.084077,-0.062715
-0.045319,-0.0044251,-0.091096,-0.063325,-0.41703,0.35264,0.2504,-0.0071717
-0.061494,0.031281,-0.12436,-0.0972,0.10758,0.050202,0.18235,0.019684
-0.063935,0.05539,-0.11429,-0.099031,0.36423,-0.4509,-0.051728,0.046235
-0.093538,0.071565,-0.11704,-0.093538,0.03006,0.21378,0.10452,0.02182
-0.14389,0.066072,-0.11917,-0.11521,-0.082856,0.35874,-0.26322,0.019379
-0.10391,0.032197,-0.089265,-0.099336,-0.02121,-0.088655,-0.40909,0.13779
-0.10208,0.040131,-0.086519,-0.093538,0.0086976,-0.55467,-0.4329,0.088655
-0.077974,0.011444,-0.057221,-0.11521,0.064546,-0.27695,-0.14084,0.049287
-0.030976,-0.077668,-0.00045777,-0.036774,-0.032807,0.89403,0.44297,0.12497
0.0013733,-0.096284,-0.019684,-0.031281,0.056306,0.33921,0.24277,0.11765
0.029145,-0.088045,-0.031891,-0.028534,-0.0096132,-0.61387,-0.0074769,0.032807
0.039521,-0.09659,0.022431,-0.12039,-0.21866,-0.50004,-0.037385,-0.035554
0.060578,-0.17258,0.038605,0.02121,0.093538,-0.03006,-0.00076295,-0.10452
0.060273,-0.16495,-0.018769,-0.084382,0.053559,-0.0047303,0.030976,-0.12833
0.04593,-0.11154,-0.027008,-0.10513,-0.14847,-0.15518,0.095979,-0.084382
-0.0013733,-0.05539,-0.049897,-0.049592,-0.096895,0.03006,0.053559,-0.031281
-0.010834,-0.020294,-0.078279,-0.061799,0.2501,0.2092,0.13321,-0.024872
-0.013581,-0.021515,-0.090181,-0.048371,0.48966,0.41428,0.25925,-0.023041
-0.044404,0.011444,-0.13046,-0.099031,0.017548,0.37675,-0.24796,0.0071717
-0.092927,0.073396,-0.13138,-0.11917,-0.48386,-0.40024,-0.75395,-0.065461
-0.12741,0.066072,-0.10513,-0.13046,0.14084,-0.24521,0.2562,-0.01297
-0.13169,0.067292,-0.1091,-0.099336,0.095979,0.73045,0.7216,0.1503
-0.095064,0.03769,-0.103,-0.076448,0.0080873,0.61753,0.48753,0.16129
-0.081025,0.023957,-0.08011,-0.11307,0.22843,0.32792,0.30625,0.10636
-0.047456,0.00015259,-0.074617,-0.081331,-0.40208,-0.65019,-0.20432,0.031281
-0.020294,-0.062409,-0.015717,-0.034333,-0.76524,-0.76249,-1.0829,0.022126
0.030365,-0.11978,0.0206,0.0090028,0.39719,-0.94133,-0.96422,0.0099184
0.051423,-0.1088,0.0074769,-0.090486,0.3682,-0.59983,0.13169,-0.0056458
0.078279,-0.16587,0.024872,-0.0035096,-0.1033,0.69261,0.42985,-0.023346
0.066072,-0.12222,-0.0028992,-0.092927,0.085298,0.049287,0.24369,-0.064546
0.023346,-0.078279,-0.022431,-0.10178,0.33371,0.036469,0.0035096,-0.13596
0.018769,-0.10086,-0.010834,-0.018769,-0.17716,0.40299,-0.2388,-0.055085
0.013275,-0.059968,-0.069123,-0.045319,-0.045014,0.050507,-0.010529,-0.041657
-0.02121,-0.042878,-0.08011,-0.03769,0.15915,0.082856,0.43015,-0.038605
-0.067903,0.0099184,-0.10513,-0.072175,0.35355,0.54185,0.62882,0.041047
-0.11429,0.076143,-0.14328,-0.18692,0.39017,0.70756,0.81346,0.18021
-0.14481,0.08072,-0.13046,-0.15396,-0.37278,0.32822,0.7396,0.23575
-0.11551,0.065461,-0.10666,-0.10697,-0.51133,-0.67765,0.62119,0.19913
-0.042573,-0.0096132,-0.090791,0.0077821,-0.17288,0.0077821,0.069123,0.045319
-0.089876,0.056611,-0.10208,-0.14176,-0.11154,-0.92424,-1.3075,-0.25437
-0.0972,0.052033,-0.08072,-0.1384,-0.043488,-1.0259,-2.296,-0.22141
-0.054475,-0.021515,-0.018769,-0.06302,0.12253,1.0451,-0.14633,0.056611
-0.032807,-0.062715,-0.012665,-0.05417,-0.049592,0.22934,0.6331,0.10971
0.010529,-0.121,0.011749,-0.077668,0.18631,-0.11154,0.11765,0.1088
0.07126,-0.16892,0.023957,0.031891,0.23606,0.19394,0.28183,0.0795
0.073701,-0.12406,-0.038911,-0.027619,0.0383,0.042573,0.17838,-0.012665
0.031586,-0.11948,-0.01236,-0.11734,-0.39353,0.045014,0.10239,-0.12253
0.022126,-0.10544,-0.010224,-0.077668,-0.14145,0.056916,0.092012,-0.10727
0.027008,-0.086824,-0.023041,-0.030671,0.22934,0.11124,0.099641,-0.029755
0.026093,-0.08835,-0.053254,-0.02884,0.26993,0.21347,0.16129,-0.013581
0.0065614,-0.058442,-0.092012,-0.053254,0.37583,-0.020294,0.079805,-0.04715
-0.058747,0.044404,-0.12253,-0.14054,0.42741,-0.51926,-0.049287,-0.083772
-0.10636,0.081941,-0.12039,-0.13504,-0.61051,-0.023041,0.015106,-0.0041199
-0.096895,0.070344,-0.12467,-0.13535,-0.91966,0.048371,0.028229,0.053864
-0.092317,0.06363,-0.11673,-0.083467,0.081636,0.1146,0.084077,0.08835
-0.06363,0.012055,-0.088655,-0.046845,0.35599,0.41978,0.13291,0.1088
-0.085908,0.044404,-0.1091,-0.17716,0.25895,-0.27054,0.018769,0.09659
-0.057832,-0.0016785,-0.033722,-0.085908,0.32364,-0.015717,0.08011,0.12985
-0.053254,-0.036774,-0.027619,-0.0022889,-0.27543,0.08072,0.17075,0.14054
-0.025483,-0.05478,0.0016785,-0.019074,-0.37369,0.026093,0.39475,0.11612
-0.00045777,-0.087434,-0.030976,-0.10666,0.1503,0.070649,0.56199,0.049287
0.030976,-0.1384,0.0044251,-0.078889,0.17105,0.026093,0.4152,-0.013275
0.081941,-0.1561,0.010529,-0.01236,0.48936,-0.022736,-0.53117,-0.15152
0.063325,-0.12192,-0.010224,-0.058747,-0.28885,0.023957,-1.8306,-0.24186
0.052033,-0.097505,-0.01236,-0.075837,-0.17258,0.1207,-0.20493,-0.069123
0.019684,-0.06424,-0.04715,-0.070954,0.014191,0.030365,0.59342,-0.014191
-0.014801,-0.040742,-0.069123,-0.048371,-0.38132,0.17746,-0.1622,-0.00045777
-0.030365,-0.010834,-0.099336,-0.086519,0.017243,-0.18692,0.12528,0.041047
-0.090181,0.02945,-0.11643,-0.12894,1.0344,-0.78416,0.11978,0.0028992
-0.1033,0.06363,-0.13138,-0.10452,0.27146,0.25406,0.47105,0.088655
-0.087434,0.049592,-0.12314,-0.048676,-0.29191,0.28672,0.42924,0.12924
-0.064546,0.043183,-0.092317,-0.10147,0.15122,-0.057221,-0.27146,0.062409
-0.082856,0.048676,-0.10605,-0.11887,-0.12863,0.26993,-0.77775,0.041962
-0.08835,0.0206,-0.084382,-0.095064,-0.4271,-0.022736,-0.002594,0.067903
-0.077974,-0.0056458,-0.034028,-0.11063,-0.049287,0.20249,0.22019,0.078279
-0.052644,-0.042878,-0.025483,-0.086824,-0.02884,-0.0972,0.11398,0.022126
0.024262,-0.10575,-0.0013733,0.02121,0.20829,-0.35691,0.17533,-0.06302
0.016632,-0.11032,0.017548,-0.079194,0.59892,-0.24826,0.029145,-0.1384
0.042878,-0.12497,0.013886,-0.036774,-0.34775,0.24765,-0.13413,-0.14481
0.063935,-0.15702,0.014191,0.011444,-0.44907,-0.46036,-0.089265,-0.043488
0.031891,-0.11093,-0.010834,-0.06363,0.22293,0.027314,-0.15946,-0.041962
0.035859,-0.075532,-0.028229,-0.11521,-0.33249,0.4329,0.12222,-0.024872
0.07187,-0.05539,-0.087434,-0.08896,-0.16434,0.35264,0.15946,0.039216
0.0096132,-0.042267,-0.082551,-0.069734,-0.043793,-0.0795,-0.016327,0.011139
-0.070039,0.019379,-0.10117,-0.098726,0.18936,-0.99992,-0.23362,-0.056611
-0.10819,0.059968,-0.13169,-0.076448,0.36118,0.024262,0.076143,0.041657
-0.12467,0.041657,-0.11551,-0.10636,0.030365,0.37308,0.084688,0.089876
-0.10056,0.050202,-0.11856,-0.057221,-0.26139,0.053559,0.032197,0.092317
-0.10178,0.037385,-0.094148,-0.099947,0.025788,0.0047303,0.086519,0.033417
-0.085908,0.023651,-0.095979,-0.11307,0.052338,-0.0022889,0.019684,0.027314
-0.074617,0.045319,-0.069429,-0.15732,-0.44999,0.38956,0.060273,0.08072
-0.069429,-0.025788,-0.03769,-0.051728,0.32578,0.25223,-0.0086976,0.058442
-0.043488,-0.059358,-0.0044251,-0.058442,0.44266,0.12558,0.1326,0.098116
-0.011444,-0.084688,0.0071717,-0.10086,0.10605,-0.69352,0.072175,0.10452
0.017243,-0.12833,0.009308,-0.039216,0.038911,-0.26291,0.25223,0.11398
0.022736,-0.1265,0.011749,-0.0044251,-0.24826,0.53391,0.28,0.039826
0.041047,-0.11795,-0.018769,-0.062715,-0.16373,-0.05539,-0.56779,-0.043488
0.050202,-0.11429,-0.01297,-0.062715,0.1973,0.47776,-0.28946,-0.06302
0.049592,-0.1146,-0.038605,0.0065614,0.039216,0.8806,-0.0090028,-0.055085
0.034028,-0.074311,-0.074311,-0.042573,0.39445,0.19181,0.005951,-0.069429
-0.00045777,-0.0041199,-0.094148,-0.1265,0.11704,-1.1608,-0.10575,-0.12711
-0.043183,0.039826,-0.11124,-0.073396,-0.9456,-0.55314,0.15335,-0.0972
0.0016785,0.036469,-0.095979,-0.05478,-0.063325,0.93706,0.23606,-0.034333
0.066072,-0.01297,-0.11887,-0.095064,0.14878,0.25895,-0.16495,-0.017548
-0.049592,0.083467,-0.15091,-0.24308,0.35691,-0.44083,-0.25956,-0.002594
-0.10452,0.059968,-0.084993,-0.1088,0.050507,-0.68986,-0.13779,0.06424
-0.079194,0.012055,-0.10086,-0.0795,-0.081941,0.10513,-0.059968,0.098726
-0.087129,-0.016327,-0.028534,-0.057527,0.013886,0.08957,0.15396,0.058137
-0.10025,-0.040742,-0.020905,-0.031281,-0.013581,0.0086976,0.015412,-0.033722
-0.095369,-0.046235,-0.01236,-0.072786,0.0080873,-0.10239,0.011444,-0.025788
-0.050507,-0.084382,-0.017853,-0.087434,0.074311,-0.018158,0.15213,-0.013581
-0.051728,-0.10239,0.0099184,-0.044099,0.098726,0.4271,-0.13077,-0.0022889
0.0041199,-0.13657,0.032197,-0.0044251,-0.19516,0.35142,-0.041047,0.036774
0.015717,-0.13474,-0.019989,-0.048676,0.094453,-0.11368,0.11704,0.031891
0.010834,-0.094148,-0.012665,-0.054475,0.29557,-0.051728,0.011749,0.030365
-0.021515,-0.044709,-0.050202,-0.14664,0.095369,0.027924,0.11765,0.041047
-0.0083925,-0.049897,-0.090791,-0.052644,-0.02945,0.065766,0.41459,0.051423
-0.031586,-0.01236,-0.093538,-0.091707,-0.15457,0.022736,0.33219,0.01297
-0.053254,0.0062562,-0.095979,-0.041657,-0.49088,-0.019684,-0.17777,0.0090028
-0.07187,0.058442,-0.12894,-0.16403,-0.066072,0.0099184,-0.024872,0.050202
-0.074006,0.073701,-0.13291,-0.14969,-0.12375,-0.016938,-0.1268,0.04593
-0.063325,0.055085,-0.099031,-0.073091,-0.27085,-0.012055,-0.31235,0.0056458
-0.047456,0.019379,-0.097505,-0.070649,0.24949,-0.023346,-0.75547,-0.020905
-0.043793,0.0035096,-0.074617,-0.053559,0.28428,-0.014191,-0.0383,0.048066
-0.020294,-0.024567,-0.061189,-0.098726,0.43442,-0.0056458,0.42069,0.07248
-0.031891,-0.02884,-0.024262,-0.11917,0.29465,0.092927,0.31907,0.066072
0.0028992,-0.087434,-0.0062562,-0.081025,-0.17868,0.39872,0.2916,0.075227
0.027619,-0.11856,0.017548,-0.011444,-0.3624,0.72892,0.29282,0.075227
0.035554,-0.1323,0.0077821,-0.023651,-0.20127,0.45304,0.24094,-0.023346
0.043183,-0.13565,0.0096132,-0.048676,0.20279,-0.8278,-0.34379,-0.085603
0.036164,-0.11826,-0.010834,-0.030365,0.16526,-0.83085,-0.015717,-0.12772
0.053864,-0.11002,-0.028229,-0.077058,0.083162,0.57786,-0.17655,-0.10086
0.017548,-0.066377,-0.06302,-0.034333,0.27146,0.6157,-1.2764,-0.15488
-0.020905,-0.029755,-0.074311,-0.079194,0.33585,-0.40757,-0.16037,-0.11978
-0.049897,0.026093,-0.11643,-0.09659,-0.27726,-1.0149,0.34257,-0.049592
-0.041047,0.037385,-0.1326,-0.080415,-0.90501,0.18723,0.17746,0.0090028
-0.082856,0.05539,-0.13474,-0.12894,0.2034,0.13596,0.20279,0.0053407
-0.11368,0.077974,-0.13169,-0.1384,0.37827,0.035248,-0.055085,0.050202
-0.084382,0.028534,-0.072786,-0.061799,-0.21408,0.41367,-0.17868,0.12772
-0.08896,0.037995,-0.10544,-0.088655,0.17014,0.078889,0.10849,0.11429
-0.078889,0.016022,-0.065156,-0.1033,0.40482,-0.12406,0.15702,0.099031
-0.051118,-0.040436,-0.036469,-0.11276,0.16495,0.042878,0.12284,0.12772
-0.053864,-0.072786,-0.01236,-0.0972,-0.34714,0.18326,0.1442,0.063325
-0.016327,-0.10483,0.0077821,-0.012055,-0.62791,0.11093,0.090791,0.045624
0.0096132,-0.11551,0.0099184,-0.063325,0.11826,-0.066987,0.077363,0.043183
0.027924,-0.098116,-0.0096132,-0.07126,-0.065766,0.14328,0.034028,0.0041199
0.051118,-0.10697,-0.0047303,-0.0044251,-0.25467,0.44053,0.08072,-0.0068666
0.10178,-0.17807,0.014496,0.039521,0.41672,0.062409,0.016022,-0.085603
0.077668,-0.099947,-0.04715,-0.04715,0.45121,-0.23362,-0.014801,-0.11734
-0.00076295,-0.015717,-0.073396,-0.1738,-0.32883,-0.16037,-0.096284,-0.081941
-0.030671,0.012665,-0.080415,-0.095064,-0.71153,-0.061799,-0.020294,-0.010529
-0.033417,0.035859,-0.1207,-0.058137,0.14298,-0.24552,0.049897,-0.041657
-0.082246,0.041657,-0.14481,-0.14176,0.78416,-0.54826,-0.084993,-0.092012
-0.10605,0.067903,-0.11032,-0.1268,0.35966,0.079805,0.0068666,-0.0019837
-0.099031,0.057527,-0.11093,-0.10452,-0.12253,0.33433,0.1564,0.13199
-0.083467,0.016022,-0.08835,-0.048371,0.17502,0.10575,0.18936,0.13199
-0.069734,0.013581,-0.084993,-0.053254,0.062409,0.0086976,0.29465,0.10788
-0.077974,-0.00045777,-0.058442,-0.086824,-0.24002,0.12985,0.28183,0.089265
-0.06302,-0.018158,-0.024872,-0.18692,-0.71427,0.092622,-0.11582,0.022736
-0.027314,-0.041962,-0.028534,-0.10452,-0.0383,-0.18936,-0.79026,-0.015412
0.033722,-0.16068,0.038605,0.023957,0.15061,-0.019989,-0.29892,-0.045624
0.073701,-0.1622,0.022431,-0.0096132,0.57633,-0.44266,0.13626,-0.034943
0.052338,-0.1326,-0.021515,-0.037385,0.61875,-0.12039,0.027924,-0.028534
0.014801,-0.1088,-0.0083925,-0.020905,-0.79728,0.81102,0.18906,-0.083467
0.01297,-0.099947,-0.015412,-0.062409,-0.31968,-0.15854,0.24887,-0.086213
-0.017243,-0.061799,-0.05417,-0.08835,0.87327,-0.38651,-0.24979,-0.049287
-0.035859,-0.020905,-0.085908,-0.12558,0.23056,0.065461,-0.20005,0.032197
-0.067292,-0.0022889,-0.093233,-0.078279,0.081941,-0.20096,-0.049287,0.043488
-0.07187,0.034333,-0.12375,-0.082551,-0.56413,0.27085,-0.11215,0.07126
-0.075532,0.063935,-0.12253,-0.12955,-0.6807,0.30594,0.048371,0.056611
-0.10025,0.092012,-0.13901,-0.099641,0.063325,-0.081941,0.19364,0.05417
-0.072175,0.033722,-0.084688,-0.039216,0.10788,0.0083925,0.20035,0.059358
-0.070039,0.0080873,-0.079194,-0.12497,0.13474,-0.10971,0.049592,0.07126
-0.062715,0.031891,-0.0972,-0.1445,0.10819,0.030671,-0.16556,0.069123
-0.019379,-0.030365,-0.0383,-0.051728,-0.00015259,-0.0028992,-0.0010681,0.072786
-0.019074,-0.070649,-0.014191,-0.032502,0.013275,-0.029145,0.22324,0.025788
-0.021515,-0.077363,-0.017548,-0.082856,0.038911,0.011444,0.048371,-0.012665
0.023651,-0.12253,0.017853,-0.040742,0.025788,-0.02182,-0.33585,0.00076295
0.0383,-0.11337,-0.0044251,-0.030671,0.022736,0.019074,-0.1146,-0.041352
0.059358,-0.15,0.0035096,-0.030671,0.042267,0.089876,0.13809,-0.04654
0.037385,-0.11063,-0.020294,-0.036469,0.062104,0.019989,0.04654,-0.050813
0.0056458,-0.090181,-0.023651,-0.064851,0.085908,-0.17319,-0.065766,-0.075837
-0.013581,-0.070039,-0.04715,-0.09659,0.065156,0.11551,0.16403,-0.051118
-0.016938,-0.027314,-0.0972,-0.078889,0.0047303,0.31571,0.22019,0.0071717
-0.049897,0.017243,-0.10483,-0.14725,0.12314,0.1738,0.21653,0.048066
-0.060578,0.033112,-0.11704,-0.1149,0.024872,0.031281,0.21012,0.072786
-0.067597,0.057527,-0.12375,-0.056916,-0.2031,0.018463,-0.38712,0.053254
-0.064851,0.065766,-0.15,-0.0080873,-0.018769,0.88396,-0.18723,0.051423
-0.06363,0.056001,-0.097505,-0.15152,-0.47074,1.0155,0.28275,0.10544
-0.053254,-0.0016785,-0.072175,-0.057221,-0.50675,-0.36576,-0.10391,0.026703
-0.087739,0.031281,-0.083162,-0.14389,0.0013733,-1.9194,-0.12375,0.051728
-0.068208,-0.031891,-0.01297,-0.1088,0.9575,-0.53666,-0.095064,-0.027314
-0.0050355,-0.074922,-0.011444,-0.039521,0.33768,0.85985,0.31205,0.028229
0.017853,-0.081941,0.0044251,-0.067597,-0.14817,0.17319,-0.1033,-0.024262
0.039521,-0.12039,0.010834,-0.033112,-0.040742,-0.037385,-0.47807,-0.15885
0.0383,-0.1268,0.0038148,-0.048981,0.093843,0.11185,0.1677,-0.12558
0.011749,-0.10056,-0.018463,-0.103,-0.1564,0.23362,0.19699,-0.053254
0.037995,-0.12467,0.0077821,-0.025483,-0.024567,-0.10025,0.04593,-0.041352
0.0068666,-0.10819,-0.032502,-0.0096132,0.13596,-0.095674,-0.064546,-0.039521
-0.012055,-0.053559,-0.061189,-0.061494,0.018769,0.039521,-0.3032,-0.01297
-0.052033,-0.0099184,-0.10849,-0.11673,0.017548,0.0077821,-0.081636,0.0206
-0.096895,0.039216,-0.10452,-0.12345,-0.030976,0.023041,0.1387,0.096284
-0.077058,0.041352,-0.12558,-0.072786,-0.025788,-0.20462,0.093843,0.090791
-0.078889,0.058747,-0.13046,-0.11643,0.092012,-0.30442,-0.018463,0.048981
-0.085298,0.056611,-0.10513,-0.1445,-0.037079,0.35843,0.15732,0.037079
-0.095674,0.053254,-0.094453,-0.12375,-0.2623,0.58488,0.29831,0.039521
-0.091402,0.038605,-0.08957,-0.10361,-0.068818,-0.084077,0.26719,0.095674
-0.033417,-0.026398,-0.054475,-0.046235,-0.17441,0.10971,0.18082,0.059663
-0.029755,-0.034638,-0.042573,-0.07126,-0.0056458,-0.024262,-0.47044,-0.015106
0.0041199,-0.095674,-0.0013733,-0.035248,0.33341,-0.15396,-0.64256,0.0056458
0.049592,-0.1268,0.017548,-0.013581,0.090181,0.34592,0.09659,0.045624
0.035859,-0.098421,-0.0080873,-0.056916,0.093233,0.02884,0.22019,0.021515
0.018158,-0.11826,0.0047303,-0.073701,-0.18723,-0.40055,0.075227,-0.022736
0.068208,-0.18448,0.024872,0.019074,-0.30472,0.04654,0.2327,0.0074769
0.048371,-0.095369,-0.030671,-0.012665,0.22293,0.16983,0.18784,-0.050813
0.0028992,-0.06363,-0.058747,-0.10941,0.15091,0.57176,0.26963,-0.041962
-0.025788,-0.018158,-0.074922,-0.13657,0.12222,0.61997,0.12711,-0.038911
-0.053559,0.019379,-0.10941,-0.10483,-0.017243,-0.039826,-0.58915,-0.012055
-0.084382,0.037385,-0.11826,-0.099947,0.086213,-1.5068,-0.24735,-0.0074769
-0.065156,0.011139,-0.10636,-0.027314,-0.15457,-0.49668,0.1445,0.016938
-0.090791,0.073091,-0.11917,-0.10269,-0.030976,0.79698,-0.24674,0.041047
-0.088045,0.052033,-0.1088,-0.12589,0.14939,-0.0099184,-0.1677,0.0206
-0.1091,0.07187,-0.11612,-0.18387,0.14328,0.20462,0.09781,0.061189
-0.072175,-0.021515,-0.064546,-0.040436,-0.10086,0.35294,0.38132,0.13413
-0.029145,-0.04593,-0.036774,-0.016938,-0.61357,0.31083,0.73381,0.16251
-0.016938,-0.053559,-0.033112,-0.17655,-0.053254,-0.62455,0.63188,0.041352
0.014801,-0.084077,0.0074769,-0.073701,0.38224,-0.34501,0.46769,-0.033417
0.02884,-0.121,0.010224,-0.013581,-0.23728,0.65934,-0.60075,-0.13443
0.053864,-0.1326,0.0062562,0.035859,0.21897,0.25193,-1.4601,-0.13596
0.018158,-0.088655,-0.016632,-0.08835,0.37705,-0.23423,0.10666,-0.0972
0.0074769,-0.08011,-0.018463,-0.050202,-0.026398,-0.58091,-0.45182,-0.11795
0.00045777,-0.10269,-0.0080873,-0.030976,-0.45945,-0.09781,-0.074006,-0.026703
-0.025483,-0.028229,-0.085908,-0.092927,0.30594,0.026398,0.45518,0.037079
-0.018769,-0.021515,-0.07248,-0.044709,0.073701,0.048981,0.19303,0.02884
-0.033417,-0.00045777,-0.12222,-0.13107,0.0016785,-0.15,0.092012,0.058137
-0.043488,0.0206,-0.10208,-0.16953,0.088045,0.23972,0.056611,0.06302
-0.066072,0.02121,-0.1091,-0.077668,-0.20371,0.51377,0.13535,0.027008
-0.12161,0.08957,-0.14511,-0.1677,-0.17105,0.020905,0.098421,0.048981
-0.08835,0.040131,-0.094453,-0.056916,-0.018158,-0.0077821,0.15549,0.10483
-0.057832,0.0077821,-0.093233,-0.050813,0.47776,-0.57633,-0.010834,0.059358
-0.047456,-0.0062562,-0.060578,-0.057221,0.49912,-0.39384,-0.18601,-0.016938
-0.042878,-0.035859,-0.033722,-0.089265,-0.95476,0.91478,0.15732,0.057221
-0.015717,-0.067597,-0.005951,-0.027314,-0.45304,0.12955,0.22141,0.073701
-0.013275,-0.081941,-0.0038148,-0.068513,0.70268,-0.041352,0.096284,0.0099184
0.022126,-0.11246,0.0099184,-0.052644,0.43137,0.31662,-0.025483,-0.0041199
0.032197,-0.10971,-0.0080873,-0.050507,-0.0080873,-0.041962,-0.11002,0.0038148
0.057832,-0.13138,0.0062562,-0.044404,-0.15579,-0.02884,0.013886,0.0041199
0.049592,-0.103,-0.019684,-0.02884,-0.094148,-0.52049,0.037385,-0.043488
0.011139,-0.092927,-0.048981,-0.059052,0.1561,0.081636,0.059052,-0.099336
0.0032044,-0.056001,-0.057221,-0.073091,0.53391,-0.21744,0.10025,-0.066682
-0.019684,-0.018158,-0.084382,-0.078889,0.18448,-0.30198,-0.15793,-0.072786
-0.043793,0.017243,-0.12131,-0.11948,-0.041047,0.16526,-0.43565,-0.032502
-0.086824,0.06424,-0.121,-0.12924,-0.048676,-0.23453,-0.010529,0.027619
-0.086213,0.055085,-0.12741,-0.099336,-0.39139,-0.21286,0.15671,0.072175
-0.095674,0.066072,-0.12161,-0.13169,-0.069734,0.28367,0.14054,0.089265
-0.075532,0.034333,-0.086213,-0.08896,-0.53208,0.12375,0.10025,0.04715
-0.096895,0.029755,-0.057221,-0.12772,-0.018158,-0.028229,0.28244,0.027924
-0.045624,-0.010834,-0.066072,-0.072786,0.1973,0.22721,0.29984,0.057221
0.017243,-0.061799,-0.033112,-0.087129,-0.1323,0.16831,0.12161,0.056001
0.040131,-0.084688,-0.0065614,-0.053559,0.37278,-0.13291,0.43351,0.018769
0.072786,-0.12772,0.018463,-0.018769,-0.23606,0.12985,-0.039521,-0.016327
0.033112,-0.12772,-0.0019837,-0.029145,-0.17258,-0.26627,-1.303,-0.076143
-0.009308,-0.11337,-0.00015259,-0.036469,0.38071,-0.40543,-0.42252,-0.026398
-0.031281,-0.12039,0.0022889,-0.017548,0.57023,0.23636,0.016632,0.0032044
-0.052949,-0.084688,-0.036774,-0.062715,-0.096284,0.55375,0.055085,0.0013733
-0.055695,-0.052033,-0.059052,-0.12039,-0.49546,0.023346,0.12894,0.019989
-0.062104,-0.027924,-0.057832,-0.10117,0.121,-0.73045,0.077363,-0.024262
-0.050813,-0.005951,-0.11093,-0.089265,0.1445,-0.014191,0.23362,-0.024262
-0.059968,0.045319,-0.12894,-0.1207,0.05539,0.058747,0.11765,0.010529
-0.087129,0.057832,-0.12284,-0.10544,0.049287,-0.013581,-0.11948,0.016022
-0.10849,0.061799,-0.1265,-0.12711,-0.070039,0.048371,0.15,0.040131
-0.093233,0.053864,-0.10666,-0.1033,-0.31632,0.30777,0.33768,0.079805
-0.075227,0.039521,-0.092927,-0.10849,-0.016632,-0.013886,0.17044,0.088655
-0.027314,0.01236,-0.070954,-0.066682,0.21073,-0.21897,-0.1912,0.10361
0.03769,-0.052338,-0.038911,-0.042573,0.38651,-0.23453,-0.11185,0.081941
0.02884,-0.068208,-0.022736,-0.095674,0.24735,0.28489,0.30564,0.047761
0.012055,-0.10056,-0.0038148,-0.037079,-0.43992,0.90196,0.14694,0.026093
0.045014,-0.15,0.017548,-0.030365,-0.68894,0.12589,-0.59373,-0.033722
0.005951,-0.10239,0.014801,-0.11307,0.090181,-0.53208,-0.38987,-0.11643
0.022736,-0.13138,0.0080873,0.026703,0.019989,-0.67369,-0.002594,-0.0795
0.005951,-0.12741,-0.0383,-0.020294,0.18936,-0.037079,0.13993,-0.03769
0.0071717,-0.11032,-0.017548,-0.053559,0.28397,0.0080873,0.11246,-0.044404
-0.0080873,-0.058442,-0.063935,-0.10391,-0.10971,0.024262,0.10452,-0.0047303
-0.021515,0.014191,-0.091096,-0.11093,-0.014801,0.0071717,0.034028,-0.013581
-0.065461,0.041657,-0.11521,-0.083467,0.04593,0.014191,0.14908,0.0028992
-0.060578,0.014191,-0.11948,-0.050813,0.025177,0.038911,0.47318,0.0056458
-0.070039,0.067597,-0.12924,-0.11765,0.055085,-0.0053407,0.33494,0.056306
-0.070039,0.052033,-0.12314,-0.1387,-0.025177,-0.098421,-0.7158,0.019074
-0.075227,0.048371,-0.1033,-0.1445,-0.1146,-0.067292,-0.65232,-0.033722
-0.07187,0.044099,-0.081331,-0.092622,0.098116,0.011444,0.28855,0.045014
-0.061189,-0.022126,-0.02884,-0.033722,0.26566,-0.019379,0.12009,0.052033
-0.025788,-0.034333,-0.044099,-0.069734,-0.19364,0.17563,0.095674,0.052338
-0.0065614,-0.069429,-0.013581,-0.080415,-0.11856,0.57725,0.13535,0.029755
0.0086976,-0.121,0.011444,-0.012055,-0.15976,0.54765,0.13626,-0.013581
-0.0053407,-0.10239,0.013886,-0.051423,0.14481,-0.12253,0.073701,-0.020905
0.010529,-0.099641,-0.033722,-0.051728,0.22507,-0.9514,0.15427,0.010834
0.018769,-0.121,-0.0047303,-0.061799,-0.21622,-0.12345,0.47776,0.041047
0.039826,-0.12985,0.0016785,-0.10147,0.19089,-0.24063,0.25101,-0.020294
0.037995,-0.12406,-0.020905,-0.025177,0.18143,-0.014191,-0.072175,-0.022431
-0.0062562,-0.020905,-0.092622,-0.06302,-0.041047,-0.031281,-0.67094,-0.032502
-0.018158,-0.0068666,-0.098726,-0.064851,0.041352,0.02121,-0.4799,-0.078889
-0.072175,0.028534,-0.11551,-0.11704,0.06424,0.17411,-0.7274,-0.070649
-0.085603,0.022126,-0.11948,-0.11582,-0.25101,0.2211,0.002594,0.017548
-0.062715,0.044099,-0.14054,-0.092927,0.15274,-0.1387,0.47623,0.091707
-0.08957,0.057221,-0.10056,-0.098421,-0.28946,-0.010224,0.17014,0.062409
-0.087129,0.04593,-0.085908,-0.13199,-0.019684,-0.011749,0.21897,0.045624
-0.10605,0.050202,-0.074006,-0.090791,0.23209,-0.1268,0.26017,0.1146
-0.078889,0.025788,-0.04715,-0.084688,0.10666,0.053254,0.33494,0.079805
-0.022736,-0.058442,-0.016938,-0.028229,-0.085908,0.26261,-0.60685,-0.024567
0.018158,-0.12222,-0.0019837,-0.040436,-0.40513,0.30564,-0.61814,-0.04654
0.0099184,-0.087434,-0.0047303,-0.083467,-0.0083925,-0.14237,0.45579,-0.0056458
0.018769,-0.10544,-0.0074769,-0.044709,0.35019,-0.84215,-0.18479,-0.013581
0.053559,-0.14939,0.031586,-0.042878,0.18692,0.34348,0.12039,0.0032044
0.041962,-0.1323,-0.022736,-0.043488,-0.030671,0.69871,0.24521,0.0038148
0.02182,-0.078584,-0.042267,-0.047456,0.067292,-0.15061,0.078279,-0.0062562
-0.00045777,-0.074311,-0.042267,-0.082856,-0.011444,0.24033,0.13474,0.0065614
-0.0074769,-0.046235,-0.077974,-0.095674,-0.59281,0.40848,-0.033417,-0.024872
-0.041962,-0.0074769,-0.099641,-0.12192,0.21958,-0.21469,0.044099,-0.056001
-0.064851,0.011444,-0.10544,-0.0010681,0.18814,-0.46098,0.02945,-0.016938
-0.077668,0.047456,-0.12955,-0.1033,-0.44755,-0.58762,-0.070649,0.059052
-0.10147,0.083467,-0.12924,-0.22629,0.31388,0.0795,0.067597,0.09781
-0.087129,0.052338,-0.10269,-0.06424,-0.063325,-0.14694,0.041047,0.10391
-0.096895,0.050202,-0.08957,-0.084993,0.40726,-0.22843,-0.013581,0.037385
-0.078889,0.041352,-0.081331,-0.14511,0.32944,0.42924,0.12711,0.10056
-0.039216,-0.016938,-0.044404,-0.10544,-0.51987,0.39841,0.25559,0.10178
0.0016785,-0.066377,-0.0080873,-0.028534,0.070649,-0.017548,0.12467,0.019074
0.031891,-0.091707,0.0038148,-0.027619,-0.17655,0.26474,-0.23056,0.019684
0.048066,-0.12345,0.0038148,-0.038605,-0.58793,0.56413,-0.053864,-0.015412
0.053864,-0.1268,0.0096132,-0.0019837,-0.070039,0.46067,0.090791,-0.073701
0.034943,-0.11673,-0.0041199,-0.042573,0.75547,0.091707,-0.099336,-0.12528
0.027008,-0.11612,-0.023957,-0.048981,0.64347,-0.35294,0.076143,-0.08957
0.0065614,-0.084077,-0.019074,-0.049287,0.035554,-1.4141,-0.3621,-0.10452
-0.0010681,-0.068513,-0.069429,-0.064851,0.1503,-1.4232,-0.34257,-0.089265
-0.031891,-0.053864,-0.081025,-0.1265,0.090486,0.5864,0.016938,-0.060883
-0.088045,0.028534,-0.11978,-0.12161,0.062409,0.31479,0.047456,-0.053559
-0.056916,0.028534,-0.11215,-0.011444,-0.038911,0.20249,0.20096,0.070039
-0.030671,0.020294,-0.13169,-0.074617,-0.51682,0.20096,0.081331,0.13169
-0.068818,0.076448,-0.13169,-0.23362,-0.63157,0.35721,0.060578,0.11826
-0.082856,0.044709,-0.090486,-0.099947,-0.086824,0.22629,0.095979,0.1561
-0.10788,0.051118,-0.072786,-0.049592,0.46372,-0.7686,-0.052033,0.13291
-0.10513,0.019989,-0.077058,-0.12711,-0.1503,0.075837,0.013886,0.06363
-0.065766,-0.013886,-0.042573,-0.086824,-0.41642,0.62699,0.12833,0.081636
-0.0383,-0.058442,-0.0038148,-0.045319,0.078279,0.093233,0.12863,0.080415
0.020905,-0.15183,0.042573,0.038605,0.15732,0.063325,0.19059,0.045014
0.034943,-0.13443,-0.0086976,-0.10697,0.54734,-0.28977,0.16495,-0.019379
0.035859,-0.12406,-0.0022889,-0.071565,0.50034,-0.31449,0.45396,-0.033112
0.019989,-0.11734,-0.016938,-0.037385,-0.19242,0.2977,0.40696,-0.050813
0.0074769,-0.081331,-0.024872,-0.073396,-0.14847,0.6276,-0.35264,-0.10575
0.0010681,-0.074922,-0.024567,-0.047456,-0.061189,0.20218,-0.10361,-0.044709
-0.018158,-0.051728,-0.06424,-0.04715,0.04715,-0.1088,-0.79088,-0.093538
-0.053864,-0.0086976,-0.086824,-0.09781,-0.036469,-0.21469,-1.0713,-0.15061
-0.083467,0.0206,-0.10117,-0.080415,-0.11826,-0.1445,0.44755,-0.035248
-0.085603,0.056306,-0.14969,-0.09659,0.45731,0.078279,0.23728,0.040436
-0.10727,0.079805,-0.11978,-0.094453,0.73838,-0.28519,0.10056,0.086213
-0.066682,0.030671,-0.10513,-0.045319,-0.38773,0.31022,0.25437,0.13931
-0.055695,0.04654,-0.11154,-0.18875,-0.59861,0.26902,0.15152,0.12284
-0.03769,0.022736,-0.091096,-0.16526,-0.70481,-0.99413,-0.18387,0.048371
-0.035554,-0.041352,-0.034333,-0.047456,-0.055085,-0.20279,0.014191,0.010834
-0.020905,-0.036774,-0.036774,-0.041047,-0.026398,0.6099,0.22416,0.047456
0.017853,-0.074311,-0.012665,-0.054475,-0.28946,0.27451,0.011139,0.07126
0.045014,-0.12284,0.015717,-0.03769,0.24338,0.17533,0.011444,0.023041
0.051118,-0.13016,0.0080873,-0.024872,0.20706,-0.060578,0.11521,-0.052644
0.053864,-0.1265,0.019684,-0.019074,0.25528,-0.45457,-0.19242,-0.076143
0.022736,-0.098726,-0.019684,-0.09781,0.25223,-0.66178,-0.24369,-0.078889
0.059052,-0.14359,0.00045777,0.00045777,0.016938,0.36484,0.28122,-0.026398
0.039521,-0.097505,-0.058747,-0.079805,-0.13107,0.12741,-0.052033,-0.090791
0.00076295,-0.044099,-0.063935,-0.08957,0.10971,-0.052338,-0.53117,-0.10452
-0.060883,0.014496,-0.11826,-0.12131,0.077363,0.056611,-0.039521,-0.091096
-0.070954,0.037385,-0.1207,-0.12802,0.009308,0.036164,0.17929,-0.04654
-0.086824,0.066072,-0.12497,-0.09659,0.049592,0.10758,0.059358,0.016022
-0.099336,0.063935,-0.11887,-0.10544,0.17136,0.11551,0.13321,0.057221
-0.089265,0.047456,-0.11429,-0.12375,0.06424,-0.019074,0.095369,0.08957
-0.1091,0.07187,-0.12284,-0.12314,-0.40269,0.043488,0.064546,0.092622
-0.10544,0.042267,-0.056916,-0.087129,0.034028,-0.057527,0.11826,0.11917
-0.042878,-0.041962,-0.020905,-0.033417,0.23484,-0.08011,0.17258,0.14328
0.012665,-0.086519,-0.023041,-0.013581,0.15335,0.23514,0.16892,0.075227
0.00076295,-0.077974,-0.0062562,-0.040436,-0.13993,0.42039,0.053559,-0.018463
-0.009308,-0.10086,0.010834,-0.10513,-0.29923,0.18357,-0.041047,-0.036469
0.017548,-0.11795,0.0047303,-0.06424,-0.29007,-0.50248,-0.17563,0.061189
0.029755,-0.12406,0.00045777,-0.017548,-0.091096,-0.0022889,-0.19944,0.0016785
0.021515,-0.1323,-0.0013733,-0.053254,0.30411,0.044099,-0.040436,-0.066987
0.022736,-0.098726,-0.037995,-0.028534,-0.052644,-0.26322,0.020294,-0.060578
-0.0383,-0.05478,-0.062409,-0.076448,0.061494,-0.19272,0.019074,-0.056001
-0.040742,-0.02182,-0.082856,-0.094759,0.39322,0.13382,0.030365,-0.01236
-0.033417,0.0013733,-0.10636,-0.079194,-0.15366,0.1799,0.082246,0.074311
-0.082856,0.057832,-0.13107,-0.13687,0.039216,-0.12406,0.10605,0.023041
-0.064851,0.058747,-0.12711,-0.079194,0.033112,0.0071717,0.39994,0.11002
-0.052949,0.059358,-0.11429,-0.098421,0.14908,0.092927,0.74815,0.17655
-0.10208,0.080415,-0.11673,-0.16068,0.34501,0.3975,0.06424,0.019379
-0.085908,0.051728,-0.092622,-0.10849,-0.59739,0.54795,-0.14664,-0.023346
-0.038605,-0.022431,-0.046845,-0.062715,-0.65721,-0.59159,0.099641,-0.0074769
-0.023346,-0.063935,-0.027008,-0.041352,0.49241,-0.47471,-1.1861,-0.066072
0.0010681,-0.079805,-0.016022,-0.058137,0.45701,0.082856,-1.0799,-0.034943
0.0099184,-0.10178,0.019684,-0.052644,0.10483,0.24613,0.77287,0.074617
0.021515,-0.11063,0.012665,-0.017548,-0.10422,0.32059,0.56046,0.067903
0.048371,-0.13901,-0.0028992,-0.010224,0.042878,0.12131,0.32486,0.017853
0.04593,-0.13779,-0.0019837,-0.037079,0.074311,-0.74357,-0.57877,-0.096284
0.035859,-0.11276,-0.029755,-0.04715,0.074311,-0.60929,-0.77684,-0.11398
0.019074,-0.087434,-0.033112,-0.20371,0.15183,0.29404,0.38895,-0.05478
-0.021515,-0.042878,-0.060578,-0.011139,-0.05478,0.35111,0.34195,-0.04715
-0.033722,-0.0080873,-0.087434,-0.045624,0.0096132,-0.0010681,0.24949,-0.017243
-0.077974,0.026703,-0.13291,-0.15671,0.0099184,0.045014,0.10147,-0.002594
-0.094148,0.059358,-0.11337,-0.15976,-0.055695,0.15732,0.34836,0.050202
-0.099641,0.076143,-0.12558,-0.050202,0.11368,0.14755,0.38376,0.099947
-0.058747,0.028534,-0.12284,-0.049592,-0.037079,0.052949,-0.2504,0.068513
-0.075227,0.027924,-0.085908,-0.1677,-0.26719,-0.31662,-0.9575,-0.038605
-0.099641,0.051118,-0.078889,-0.087434,-0.42649,-0.36545,0.10544,0.025177
-0.11826,0.041657,-0.052949,-0.12345,-0.060578,0.30045,0.35111,0.12222
-0.08011,-0.032502,-0.041047,-0.065766,0.060273,0.083467,0.11978,0.12284
-0.050507,-0.071565,-0.012055,-0.066987,-0.071565,0.14389,0.11215,0.11185
0.016022,-0.13626,0.035859,-0.0013733,-0.076143,0.22721,0.047456,0.084382
0.056611,-0.1384,0.0056458,-0.043183,0.015412,0.27848,0.078279,0.035248
0.060578,-0.15,0.013581,-0.034943,-0.15579,0.4445,0.064546,-0.063325
0.11917,-0.16953,-0.0019837,0.045319,-0.18082,0.40116,0.14725,-0.073701
0.016938,-0.04654,-0.066682,-0.15457,1.2468,-0.81193,-0.13199,-0.17014
0.029145,-0.075532,-0.031891,-0.081636,0.59495,-0.28244,-0.14969,-0.11429
0.012665,-0.034943,-0.075227,-0.08957,-0.44724,-0.25101,-0.0050355,-0.026703
0.0041199,-0.033417,-0.099641,-0.018769,-0.16892,0.2916,0.095979,-0.01236
-0.02945,0.01236,-0.11063,-0.044099,-0.19577,0.28763,0.037995,-0.00045777
-0.084382,0.065461,-0.13626,-0.16464,0.31754,-0.9929,-0.27146,-0.0090028
-0.1033,0.052338,-0.13565,-0.16281,-0.11307,-0.16983,-0.038605,0.08072
-0.099641,0.067292,-0.094759,-0.11154,-0.15946,0.29191,-0.10727,0.039216
-0.081636,0.0383,-0.090181,-0.090486,-0.0096132,0.098421,-0.056916,0.045319
-0.07187,0.01236,-0.068513,-0.077668,-0.065766,0.13718,0.12467,0.073701
-0.056001,-0.013581,-0.030976,-0.077668,-0.020294,0.017243,0.0795,0.040131
-0.043488,-0.046845,-0.011749,-0.056306,-0.0083925,-0.030976,0.051118,0.050202
-0.0035096,-0.10452,0.0019837,0.002594,0.0032044,-0.15702,0.046235,0.067903
0.030976,-0.11551,-0.0090028,-0.043183,0.10575,-0.11154,0.058442,0.050507
0.045624,-0.12284,0.010224,-0.085908,0.025788,0.48692,0.076143,0.027008
0.061799,-0.12345,-0.0041199,-0.058137,-0.1384,0.6215,0.14267,0.0086976
0.041047,-0.10575,-0.013581,-0.031586,0.035859,0.040436,0.11185,-0.023346
0.048371,-0.10452,-0.018769,-0.030365,0.037385,0.1442,0.12619,-0.039826
0.0068666,-0.073701,-0.058747,-0.081331,0.11612,-0.70848,0.060578,-0.08957
-0.030671,-0.033417,-0.095369,-0.086824,0.18509,-0.24277,-0.13016,-0.09781
-0.022736,0.0062562,-0.11246,-0.083467,0.10239,0.56382,-0.34287,-0.028534
-0.061494,0.069123,-0.13687,-0.15793,0.1503,0.069123,0.17716,-0.00076295
-0.093538,0.04715,-0.094148,-0.090791,-0.36423,-0.62272,0.062104,0.00045777
-0.10819,0.044404,-0.11704,-0.077668,-0.17685,-0.22629,-0.29496,0.0041199
-0.15366,0.11002,-0.12284,-0.12924,0.25803,0.068513,-0.21317,0.005951
-0.16159,0.034333,-0.07248,-0.11704,-0.19669,0.098726,-0.26932,0.030976
-0.10636,-0.036469,-0.058442,-0.053254,-0.31785,0.18967,0.069123,0.10697
-0.069429,-0.014496,-0.050507,-0.087739,0.16587,-0.076143,0.18723,0.1146
-0.060883,-0.026703,-0.023041,-0.11765,0.27756,0.32822,0.18906,0.076448
0.013886,-0.094759,-0.0019837,-0.013581,0.0071717,0.82963,0.28794,0.14481
0.074006,-0.15274,0.0083925,-0.022126,-0.28122,0.59251,0.099641,0.061799
0.057221,-0.13046,0.0074769,-0.050813,-0.3032,-0.58274,-0.2681,-0.059663
0.060578,-0.12375,0.009308,-0.042573,0.24308,-1.0747,-0.083162,-0.031586
0.052949,-0.11398,-0.016327,-0.03769,0.26291,0.51987,0.078279,-0.077974
0.033417,-0.066377,-0.056916,-0.060883,0.2562,0.13169,0.016022,-0.096895
0.010834,-0.053559,-0.069123,-0.07248,0.21042,0.14084,0.0032044,-0.067597
-0.026398,-0.013581,-0.10483,-0.13046,-0.14176,0.14694,0.024262,-0.043488
-0.0383,0.017243,-0.10117,-0.051728,0.1146,0.038911,0.070344,-0.0022889
-0.059052,0.044404,-0.13352,-0.11307,-0.45243,0.052338,0.081941,0.018158
-0.070954,0.061189,-0.13138,-0.1326,-0.40482,-0.009308,0.28031,0.041657
-0.068818,0.048066,-0.1088,-0.08957,-0.076143,0.051423,0.27756,0.068208
-0.098116,0.052033,-0.098726,-0.0972,0.37278,-0.11032,-0.40726,0.0099184
-0.069734,0.012055,-0.077974,-0.05539,0.41245,-0.41001,-0.43107,0.056611
-0.024262,-0.025483,-0.044709,-0.11307,-0.23209,0.15824,0.095674,0.11368
-0.055085,-0.018158,-0.032807,-0.12497,-0.15488,0.21408,0.10147,0.040436
-0.01236,-0.08072,-0.0038148,-0.048371,-0.0065614,-0.23209,0.037079,0.05539
0.028229,-0.1265,-0.0028992,-0.010224,0.08011,-0.2562,0.096895,0.051423
0.032197,-0.1268,0.0074769,-0.072175,0.04593,-0.012665,-0.13413,-0.069429
0.021515,-0.099336,-0.0056458,-0.064851,0.15885,0.094759,-0.17594,-0.11582
0.017243,-0.090486,-0.0016785,-0.035554,0.055085,0.41276,0.095979,-0.048676
0.026093,-0.11246,0.014801,0.0044251,0.019684,0.028229,-0.016632,-0.014191
0.005951,-0.084382,-0.058137,-0.047456,-0.026398,-0.14298,-0.06302,-0.030671
-0.031586,-0.025483,-0.094453,-0.084382,-0.07126,0.045624,0.12009,-0.060578
-0.057221,0.0077821,-0.11429,-0.10178,0.017243,0.0065614,0.11276,-0.031891
-0.089876,0.041962,-0.11368,-0.1561,-0.041962,-0.0053407,0.06302,0.041352
-0.087739,0.017243,-0.10605,-0.14328,0.21775,0.044404,0.086519,0.081331
-0.11643,0.074311,-0.12741,-0.10636,0.32944,-0.02945,0.088045,0.10025
-0.085603,0.045624,-0.10513,-0.049592,0.15091,0.075532,0.095369,0.087739
-0.039521,0.02182,-0.11307,-0.03769,-0.081941,0.21103,0.084382,0.06363
-0.070649,0.040436,-0.066072,-0.15976,-0.45548,0.16373,-0.28763,0.031281
-0.036469,-0.06363,-0.032197,-0.054475,-0.73716,-0.27512,0.19394,0.096895
-0.025788,-0.032807,-0.034638,-0.089876,0.25101,-0.070649,0.69444,0.11307
0.017853,-0.088045,0.030976,0.028534,0.18936,0.42191,0.44999,0.026703
0.031891,-0.13077,0.017243,-0.044709,0.054475,0.16617,-0.28885,0.013275
0.043183,-0.12497,0.0022889,-0.18173,0.22568,-0.16159,-1.2795,-0.070954
0.070039,-0.16678,0.0099184,0.031281,0.10849,-0.68193,-0.0383,-0.05539
0.03769,-0.10971,-0.022431,-0.018158,0.4799,-0.63188,0.19181,-0.14328
0.009308,-0.081636,-0.027619,-0.11521,-0.28885,-0.023041,-0.82658,-0.17441
-0.00076295,-0.05478,-0.068513,-0.06302,-1.0735,1.0164,0.14237,-0.066987
-0.015106,-0.035859,-0.087434,-0.022431,0.44572,0.59678,0.43412,-0.069123
-0.041657,0.019989,-0.11612,-0.12894,0.48966,-0.37644,-0.1503,-0.047456
-0.11856,0.057527,-0.10452,-0.10575,0.041962,-0.65995,-0.40177,-0.017243
-0.089265,0.050202,-0.10483,-0.051728,0.085908,-0.29709,0.12894,0.089876
-0.069734,0.039521,-0.10727,-0.094759,0.1149,-0.10758,0.24277,0.11765
-0.085908,0.058442,-0.13382,-0.15763,-0.035554,-0.023651,0.0010681,0.020905
-0.075532,0.050202,-0.098726,-0.073701,-0.20279,0.25406,0.067903,0.005951
-0.048981,-0.01297,-0.053254,-0.017548,-0.10544,0.096895,0.1323,0.056306
-0.029755,0.00045777,-0.059968,-0.21164,0.035554,0.11795,0.12924,0.11307
-0.0022889,-0.062409,-0.010529,-0.076448,-0.013581,0.1976,0.11978,0.15213
0.024872,-0.10636,0.012665,-0.005951,-0.018463,0.11704,0.092927,0.12833
0.02121,-0.11887,0.0096132,-0.021515,0.025483,-0.14267,0.042878,0.092622
0.015106,-0.11154,0.00076295,-0.064851,-0.0032044,-0.37797,-0.00015259,0.017548
0.009308,-0.11612,0.0013733,-0.034943,0.055695,0.10086,0.052033,-0.040742
0.0019837,-0.10269,-0.016938,-0.059052,0.041352,0.11521,0.043183,-0.081941
-0.020905,-0.057832,-0.0383,-0.061494,0.065156,0.052644,0.03006,-0.089876
-0.022126,-0.041657,-0.063325,-0.077363,0.035248,0.062715,0.061799,-0.060578
-0.051423,-0.002594,-0.1088,-0.066682,-0.014191,0.009308,0.074311,-0.056916
-0.068818,0.0077821,-0.11368,-0.099336,0.023957,0.0077821,0.03006,-0.024872
-0.073091,0.037385,-0.12741,-0.091096,-0.023651,0.19394,0.041657,0.035554
-0.076143,0.037385,-0.12222,-0.13077,-0.058747,0.002594,0.030976,0.084382
-0.0795,0.046235,-0.103,-0.13931,0.026093,-0.099336,-0.067597,0.042878
-0.070039,0.028534,-0.092622,-0.091402,0.067292,0.23972,-0.065461,0.079805
-0.062715,0.03769,-0.092927,-0.074311,0.068513,0.13779,-0.019684,0.08072
-0.042878,-0.018769,-0.0383,-0.063325,0.096895,-0.10086,0.043488,0.052033
-0.016327,-0.045319,-0.048981,-0.094453,-0.37644,-0.32212,-0.023346,0.019684
0.012055,-0.070649,-0.011749,-0.060273,-0.20249,0.10697,0.0028992,0.016632
0.025483,-0.10422,0.030976,-0.013275,0.27115,-0.71916,-0.084077,0.0016785
0.022126,-0.12284,-0.0065614,-0.032502,-0.13931,0.39719,0.020905,-0.016938
0.06302,-0.17502,0.027924,-0.064851,-0.039826,0.29404,0.081636,-0.052033
0.062409,-0.12467,-0.012055,-0.10758,-0.10819,0.060883,0.28641,-0.030365
0.0383,-0.10697,-0.012665,-0.067597,-0.10788,0.41459,0.4683,0.0041199
0.00045777,-0.074922,-0.060273,-0.009308,-0.20462,0.29252,0.59281,0.009308
0.0047303,-0.056916,-0.081025,-0.016022,0.37125,-0.16007,0.70268,0.048371
-0.051118,0.012055,-0.11246,-0.1445,1.1339,-0.26017,-0.0035096,-0.072175
-0.065156,0.03769,-0.103,-0.091402,0.41672,0.24887,-0.87114,-0.13657
-0.10147,0.04715,-0.12131,-0.0972,-0.82261,0.74693,-0.7686,-0.050507
-0.10452,0.049592,-0.12558,-0.044404,0.39078,-0.40848,-1.5538,0.010834
-0.11521,0.11063,-0.12558,-0.15702,-0.037385,-0.98741,-0.38437,0.022736
-0.095674,0.061799,-0.087129,-0.18387,-0.14786,0.0080873,1.0582,0.031891
-0.051118,0.0032044,-0.084993,-0.074311,0.20188,-0.69902,0.081331,-0.014191
-0.052949,-0.0383,-0.016327,-0.056611,-0.11032,-0.64866,-1.2288,-0.056611
-0.022431,-0.059968,-0.02182,-0.044709,-0.93309,0.85527,-0.17288,0.019989
0.019379,-0.091707,0.0041199,-0.028534,-0.033722,0.11093,0.21347,0.064546
0.023041,-0.099947,0.014496,-0.072786,0.26719,0.074311,0.33097,0.06302
0.091402,-0.13169,0.017243,-0.061799,-0.16556,0.41306,0.3566,0.044404
0.057832,-0.08896,-0.045014,-0.059663,-0.08835,0.22446,0.17472,0.025177
0.011139,-0.094759,-0.026093,-0.042878,0.058137,-0.049287,0.12985,-0.044709
-0.0068666,-0.11398,-0.0062562,-0.040131,0.37217,-0.37644,0.069123,-0.059052
-0.04715,-0.074311,-0.057221,-0.097505,0.18967,-0.14481,0.0795,-0.034638
-0.047761,-0.048981,-0.069123,-0.025483,-0.074922,0.17533,0.15457,0.020905
-0.086824,0.052338,-0.12894,-0.14359,0.040131,0.074922,0.14054,0.0086976
-0.092927,0.050202,-0.12955,-0.13962,0.041352,-0.27756,0.039521,-0.01236
-0.11582,0.046235,-0.11032,-0.093233,-0.1326,0.22477,0.089265,0.027008
-0.090791,0.061494,-0.12375,-0.092927,0.31174,0.54124,0.18662,0.13046
-0.083772,0.044709,-0.103,-0.098726,-0.029755,0.13077,0.15549,0.11826
-0.085298,0.034333,-0.094759,-0.13535,-0.10422,-0.1619,0.10452,0.08072
-0.039826,0.0041199,-0.05478,-0.093233,-0.061189,0.014496,0.030365,0.10636
-0.002594,-0.033417,-0.032197,-0.06424,-0.064546,-0.030365,-0.019074,0.065461
0.044099,-0.1323,0.010224,0.0096132,0.0080873,-0.058137,-0.089265,0.011749
0.045624,-0.12436,0.009308,-0.065156,0.0383,-0.059052,-0.045624,0.0068666
0.037385,-0.084382,-0.0062562,-0.091096,0.032197,0.0028992,0.12284,-0.018463
0.060578,-0.11093,0.0062562,-0.044404,-0.025483,0.081636,0.0077821,-0.0071717
0.069734,-0.13413,-0.0096132,-0.017548,0.013581,-0.0041199,-0.33768,-0.084382
0.062409,-0.11093,-0.010834,-0.024262,0.092317,-0.035248,-0.19669,-0.14054
0.034943,-0.093538,-0.052338,-0.044709,0.2681,0.16281,0.077668,-0.10422
-0.031891,-0.038911,-0.069123,-0.12863,0.31449,0.1622,0.078279,-0.10391
-0.045624,-0.0065614,-0.08835,-0.084688,0.1912,0.18997,0.053559,-0.022126
-0.087739,0.033112,-0.11276,-0.10727,-0.28153,-0.16709,0.067903,0.041657
-0.10025,0.077974,-0.13291,-0.093538,-0.50095,-0.26139,0.031891,0.059052
-0.099031,0.057527,-0.1149,-0.10361,-0.51316,-0.031281,0.076448,0.090791
-0.073396,0.013886,-0.095979,-0.08957,-0.46342,-0.30686,-0.023651,0.034333
-0.10239,0.044099,-0.094759,-0.11368,0.13993,0.05539,-0.078889,0.012665
-0.11795,0.052033,-0.094148,-0.081331,0.38315,0.12161,0.023041,0.065766
-0.06363,-0.0047303,-0.056916,-0.11978,0.76402,0.69139,0.48661,0.15702
-0.022736,-0.080415,0.014191,-0.051118,-0.052644,0.79667,0.60899,0.16617
-0.002594,-0.068208,-0.026093,-0.021515,-0.22599,-0.039826,0.12985,0.088655
0.0053407,-0.086519,-0.013581,-0.11093,-0.25498,-1.4568,-1.1159,-0.089265
0.016938,-0.13474,0.016327,-0.039521,-0.25834,-0.49912,-0.86778,-0.14084
0.022126,-0.11398,0.00076295,-0.027314,0.4271,0.42985,0.59892,-0.022736
0.016938,-0.12741,-0.0013733,-0.066377,0.05539,0.18143,0.41123,-0.029755
0.033722,-0.12802,-0.0206,-0.024567,-0.12558,0.1091,0.34379,-0.016327
-0.0019837,-0.057832,-0.061799,-0.011139,0.15061,0.1088,-0.38193,-0.10208
-0.017243,-0.021515,-0.074006,-0.099031,0.28519,0.13107,-0.73167,-0.041047
-0.041657,0.0044251,-0.10056,-0.10849,0.055085,0.24247,0.19181,0.067597
-0.043183,0.030671,-0.13046,-0.168,0.037079,0.01297,0.05417,0.022736
-0.084077,0.060578,-0.12222,-0.096895,-0.32944,-0.68437,0.0086976,0.019074
-0.11521,0.082551,-0.11612,-0.11093,-0.27909,-0.051423,0.1146,0.050202
-0.08835,0.036469,-0.092317,-0.090486,0.20737,0.059358,0.042878,0.094453
-0.061189,0.017243,-0.11276,-0.077058,0.05539,-0.070344,0.085908,0.12436
-0.015717,-0.040742,-0.035859,-0.02945,-0.11154,0.036774,0.10819,0.046235
-0.014801,-0.025483,-0.06302,-0.11734,0.19699,-0.14267,0.085298,-0.0068666
-0.015106,-0.036164,-0.035554,-0.0795,0.47471,0.025177,0.009308,-0.027008
-0.0041199,-0.08011,-0.0016785,-0.030365,-0.4683,0.51713,0.044099,0.0038148
0.037995,-0.1442,0.031891,-0.00015259,-0.41611,0.48905,0.025483,-0.042878
0.026093,-0.12161,0.00076295,-0.067597,0.1619,-0.17807,0.033112,-0.053559
0.019684,-0.12497,-0.00045777,-0.10239,0.17899,-0.3508,0.013581,-0.048371
0.042267,-0.10971,-0.023651,-0.040131,0.12039,-0.12985,0.031891,-0.030671
0.00045777,-0.06363,-0.048066,-0.05417,0.14206,0.34257,0.011749,-0.038605
0.005951,-0.066072,-0.053864,-0.016632,-0.01297,0.15,0.011139,-0.024262
-0.0071717,-0.036164,-0.084077,-0.084382,0.077363,-0.17655,0.067597,-0.0032044
-0.030365,0.018158,-0.10819,-0.12467,-0.38773,0.20798,0.030976,-0.050507
-0.056916,0.036164,-0.11765,-0.055695,-0.44144,0.061494,-0.018463,-0.071565
-0.078279,0.055695,-0.11978,-0.087739,0.50645,-0.40238,-0.14389,0.015106
-0.10544,0.074617,-0.13901,-0.16281,0.44938,-0.14237,-0.35843,0.05417
-0.11215,0.07248,-0.10971,-0.14969,-0.28336,0.10788,0.17411,0.13169
-0.08011,0.015106,-0.084993,-0.041047,-0.22873,0.33249,0.1915,0.13993
-0.077668,0.019989,-0.07126,-0.14542,-0.19303,0.061494,0.011749,0.084382
-0.041352,-0.032502,-0.030976,-0.083772,0.14878,-0.10086,0.084382,0.067903
-0.015106,-0.07187,-0.0019837,-0.069123,-0.070954,0.28855,0.24826,0.079194
-0.0032044,-0.099641,0.010224,-0.034638,0.03769,0.28214,0.36454,0.041962
0.062409,-0.16342,0.013886,0.061189,-0.17624,0.14389,0.36118,0.066072
0.064546,-0.1268,0.0047303,-0.048371,0.31327,-0.49638,-0.21073,-0.048371
0.032197,-0.090486,-0.020294,-0.091707,0.35416,-0.56077,-0.36637,-0.11002
0.053864,-0.10575,-0.011444,-0.044404,-0.029145,-0.082246,0.068208,-0.090181
0.10971,-0.10819,-0.029755,-0.060273,0.24155,-0.10636,-0.64775,-0.13779
0.016938,-0.056916,-0.084382,-0.083772,0.18021,0.036469,-0.7158,-0.10452
-0.04593,-0.016327,-0.08896,-0.072175,-0.12467,0.41154,0.16312,-0.049287
-0.08011,0.0077821,-0.11551,-0.094759,-0.10513,0.13565,0.37675,-0.012055
-0.12955,0.067597,-0.12894,-0.12436,-0.026398,-0.47959,0.29068,-0.01236
-0.16098,0.072175,-0.121,-0.11856,0.016022,-0.50614,0.18845,-0.0019837
-0.15702,0.053254,-0.098421,-0.10575,-0.034638,0.40787,0.051423,0.060273
-0.11551,0.054475,-0.1033,-0.10452,-0.0074769,0.048676,-0.43351,0.095674
-0.10849,0.049897,-0.090181,-0.11093,-0.0083925,0.01236,-0.19272,0.079194
-0.084382,-0.00076295,-0.053254,-0.064851,-0.069734,0.065461,0.23728,0.11276
-0.062104,-0.017853,-0.032807,-0.10056,-0.25895,0.062104,0.33524,0.16159
-0.028534,-0.048371,-0.013581,-0.087434,-0.08896,0.20615,0.5275,0.17685
0.026703,-0.13596,0.039521,0.013886,-0.013581,0.59281,0.70634,0.17258
0.041047,-0.15579,0.011444,-0.0028992,-0.030671,0.4387,0.34134,0.044404
0.062104,-0.11612,-0.020905,-0.062409,-0.052949,0.022126,-0.75731,-0.051423
0.074311,-0.11948,-0.0074769,-0.078584,0.12802,-1.1867,-0.981,-0.12863
0.056001,-0.10575,-0.014801,-0.054475,0.12039,-0.54337,0.51591,-0.16373
0.048371,-0.10819,-0.015412,0.059052,-0.085908,0.50614,0.36088,-0.1564
-0.022736,-0.0022889,-0.11673,-0.13138,0.37034,-0.07126,-0.44541,-0.12039
-0.042878,0.0071717,-0.093233,-0.21592,0.47013,-0.22019,-0.70787,-0.044709
-0.032807,0.0022889,-0.11032,-0.0795,-0.1677,-0.1323,-0.015412,0.0050355
-0.056916,0.056001,-0.13993,-0.11063,-0.032197,0.24002,0.21592,-0.013275
-0.076143,0.049897,-0.10666,-0.09659,-0.067292,0.86412,0.049897,0.062104
-0.066072,0.043793,-0.11765,-0.045624,0.028229,0.093538,-0.41093,0.08072
-0.079194,0.039521,-0.10208,-0.11124,-0.069429,-0.015412,0.28153,0.094453
-0.093843,0.033417,-0.06424,-0.12284,-0.5922,-0.25925,0.11063,0.037385
-0.063325,-0.020294,-0.024567,-0.05478,-0.30381,-0.3508,-0.043793,0.013886
-0.033722,-0.060578,-0.030365,-0.06363,0.20981,0.13504,0.12924,0.052949
-0.0083925,-0.090181,-0.00045777,-0.040436,0.22141,0.22629,0.14694,0.051118
0.024872,-0.12161,0.024872,-0.060883,0.22141,0.17777,0.084382,0.016938
0.02884,-0.11368,-0.018158,-0.074922,0.10056,0.0795,0.15946,-0.0068666
0.034333,-0.13626,0.0080873,-0.011444,-0.2974,-0.44938,0.36423,-0.0044251
0.065766,-0.1387,-0.024567,-0.030365,-0.14389,-0.017548,0.38315,-0.019074
0.024262,-0.098116,-0.020905,-0.11734,-0.17075,0.2501,0.25223,-0.11002
0.0096132,-0.078889,-0.070649,-0.020905,-0.25925,-0.13687,-0.4686,-0.10178
-0.018158,-0.0099184,-0.10422,-0.092622,0.93156,-0.33829,-0.89891,-0.0086976
-0.041352,0.0053407,-0.094148,-0.093843,0.7686,-0.18601,0.13504,0.092012
-0.088045,0.07187,-0.13321,-0.099947,0.73014,0.086519,0.36057,0.08072
-0.099031,0.059663,-0.12467,-0.103,-0.28855,0.18173,0.31052,0.027924
-0.093233,0.037079,-0.11826,-0.08835,-1.3954,0.18753,0.27878,-0.002594
-0.10605,0.068208,-0.11429,-0.11398,-0.2916,0.014496,-0.18387,-0.0013733
-0.10513,0.059358,-0.085908,-0.0972,-0.092927,0.024567,-0.90013,0.00045777
-0.066682,0.0013733,-0.058137,-0.050507,0.17472,-0.10178,0.12161,0.13443
-0.032502,-0.048066,-0.045014,-0.069123,0.2501,0.0010681,0.35813,0.13993
0.0010681,-0.078279,-0.0065614,-0.1445,0.14206,0.078889,0.18387,0.089876
0.028229,-0.12467,0.026398,-0.044404,0.0077821,-0.03006,-0.053254,0.0086976
0.035554,-0.10544,-0.0062562,-0.044404,-0.20829,-0.0086976,-0.17838,-0.077058
0.0383,-0.10422,0.0074769,-0.049592,0.038911,-0.022126,-0.0047303,-0.099947
0.035859,-0.13596,-0.0041199,-0.055695,0.019074,-0.023041,0.062104,-0.059358
0.040131,-0.12375,-0.00045777,0.043793,-0.11002,0.11765,0.439,-0.041047
0.015717,-0.081941,-0.06302,-0.097505,0.27237,0.044099,0.23392,-0.077668
-0.037385,-0.021515,-0.082551,-0.12161,0.50492,0.019074,-0.24033,-0.087739
-0.049592,-0.051728,-0.074006,-0.058747,-0.10941,0.073396,0.4509,0.036164
-0.036774,0.0044251,-0.11093,-0.061189,0.29587,-0.20127,0.027008,0.062104
-0.059358,0.068513,-0.12924,-0.12924,0.23178,-0.12253,-0.67857,-0.010529
-0.07187,0.066072,-0.12253,-0.11521,-0.22904,0.13321,-0.023346,-0.042878
-0.10452,0.051118,-0.12131,-0.09659,-0.72496,0.24521,-0.27665,0.016938
-0.059358,0.030365,-0.10117,-0.095064,-0.16617,-0.065461,-0.3386,0.10178
-0.054475,0.0044251,-0.049897,-0.103,0.24308,-0.17624,-0.12833,0.11215
-0.059358,-0.0062562,-0.052338,-0.05478,0.12833,-0.22843,0.074617,0.057221
-0.041657,-0.023651,-0.032197,-0.1619,0.19577,0.066682,0.098116,0.072175
-0.014801,-0.085908,0.00015259,-0.069123,-0.039216,0.4567,0.077668,0.015717
0.0074769,-0.11246,0.005951,-0.0050355,-0.3679,-0.070039,0.1146,-0.014801
0.022126,-0.11002,-0.00015259,-0.022431,-0.035248,0.20127,0.24033,0.0032044
0.033417,-0.13046,0.009308,-0.015106,0.033722,0.12375,0.22538,-0.018769
0.037079,-0.12222,-0.0080873,-0.067597,0.1854,-0.24613,0.21012,-0.0086976
0.037385,-0.13626,0.00076295,-0.052949,-0.14847,-0.095369,0.22934,-0.0044251
0.020905,-0.06424,-0.078279,-0.032807,-0.121,-0.070649,0.043183,-0.019379
-0.05539,0.029755,-0.11032,-0.14847,0.46372,0.20371,-0.3978,-0.056001
-0.077058,-0.0016785,-0.072786,-0.070344,0.46921,-0.2446,-0.23819,-0.043183
-0.072786,0.033112,-0.1326,-0.09781,-0.19883,-0.21592,0.18936,0.043488
-0.083772,0.061189,-0.10605,-0.099031,0.063325,-0.011444,0.15885,0.059968
-0.088045,0.058442,-0.13779,-0.14267,-0.12619,0.095979,-0.13046,0.076143
-0.092927,0.052033,-0.11032,-0.14694,-0.27787,0.28428,0.13504,0.048371
-0.074922,0.031281,-0.094759,-0.078889,-0.014191,-0.043488,0.38315,0.045014
-0.068208,0.0077821,-0.05478,-0.072175,-0.014191,-0.074617,0.046235,0.05417
-0.067903,-0.023957,-0.038605,-0.068208,-0.027008,-0.029755,0.13718,0.06302
-0.050813,-0.050202,-0.033722,-0.075532,-0.040436,0.031586,0.35386,0.051423
-0.024567,-0.10147,0.011444,-0.016632,0.0028992,0.041352,-0.5687,0.0010681
0.041962,-0.12161,0.009308,-0.029145,-0.08957,0.35416,-0.95842,-0.0096132
0.065461,-0.12039,0.0016785,-0.047456,-0.12253,0.25681,0.038911,-0.023041
0.0795,-0.1326,0.009308,-0.040436,0.20096,-0.33219,0.053254,-0.076753
0.075837,-0.13016,-0.018158,-0.0383,0.28458,-0.92454,-0.032502,-0.13077
0.033112,-0.10239,-0.03769,-0.067597,0.057832,0.21775,0.19699,-0.11154
-0.0028992,-0.044404,-0.08072,-0.086824,0.074617,0.23606,0.15885,-0.067292
-0.010834,-0.030976,-0.080415,-0.099641,-0.0071717,-0.019074,0.043488,-0.021515
-0.028534,-0.01236,-0.0972,-0.055085,-0.067903,0.12558,0.099031,0.0010681
-0.067597,0.025177,-0.13687,-0.10178,-0.034333,0.022736,0.081941,0.0099184
-0.089876,0.070344,-0.12711,-0.15549,0.12589,-0.12284,0.031891,0.036774
-0.1445,0.13352,-0.13291,-0.18784,0.13596,-0.06363,0.10636,0.053864
-0.074006,-0.0016785,-0.046235,-0.026093,-0.15824,0.24338,0.2681,0.1387
-0.0795,0.015412,-0.11063,-0.073091,-0.078889,0.1265,0.28824,0.12711
-0.085298,0.035248,-0.088045,-0.14054,-0.046845,0.0090028,0.19638,0.076448
-0.0206,-0.082246,-0.021515,-0.017548,-0.4686,0.19608,-0.56138,0.061494
-0.0019837,-0.027314,-0.029755,-0.11795,-0.32425,0.13199,-0.77958,-0.00045777
0.015717,-0.086519,0.01236,-0.037079,-0.0080873,-0.09659,0.28641,0.02121
0.046235,-0.1442,0.02945,0.00045777,0.67857,-0.5452,0.10452,0.020905
0.054475,-0.13962,0.010529,0.027314,0.48966,-0.0041199,0.050202,-0.018769
0.033112,-0.10544,-0.024872,-0.11734,-0.11429,0.23239,0.057832,-0.081636
0.034943,-0.11154,-0.016022,-0.041657,0.015106,0.019379,0.049287,-0.089265
0.029755,-0.11643,-0.034333,0.011444,-0.02945,0.086824,0.085603,-0.07126
-0.012055,-0.022126,-0.088655,-0.15274,-0.015717,0.14572,0.059663,-0.068208
-0.031586,-0.014191,-0.074922,-0.14542,0.040436,0.23209,0.031586,-0.044404
-0.051118,0.018158,-0.1323,-0.061799,0.13993,0.27481,0.044404,-0.0096132
-0.10422,0.076753,-0.12619,-0.099031,0.14572,0.17777,0.018769,0.048066
-0.12589,0.061189,-0.12528,-0.13107,0.036164,-0.49516,-0.10697,0.092317
-0.13199,0.07187,-0.11063,-0.10391,-0.50736,-0.64012,-0.009308,0.10544
-0.093538,0.0383,-0.087434,-0.073701,-0.49638,-0.18448,0.074006,0.12375
-0.10025,0.049592,-0.08011,-0.10452,0.14633,0.12589,0.041962,0.085908
-0.076143,-0.0019837,-0.039216,-0.076753,0.16526,0.0022889,0.0068666,0.075227
-0.065461,-0.02945,-0.024262,-0.077668,0.17472,-0.025788,-0.028229,0.053254
-0.0080873,-0.1088,0.0080873,0.0028992,0.059968,-0.035859,-0.027619,-0.018463
-0.00045777,-0.10819,0.013581,-0.08835,0.23209,0.10117,0.053559,-0.010834
-0.0071717,-0.11765,0.013886,-0.10056,-0.31937,0.72099,0.14633,0.0019837
0.075227,-0.16556,-0.0099184,0.037385,-0.78508,0.35691,0.19242,0.044404
0.083772,-0.12985,-0.016632,-0.016632,-0.17166,-0.5098,-0.035554,-0.022126
0.045319,-0.10361,-0.028534,-0.074617,0.6215,-0.78202,-0.24979,-0.10544
0.059358,-0.093538,-0.053254,-0.087129,0.97612,0.49393,0.037995,-0.048371
0.023346,-0.052033,-0.058442,-0.07126,0.16587,0.17746,-0.063935,-0.063325
-0.017243,-0.0065614,-0.1088,-0.087434,-0.46342,-0.017548,-0.21866,-0.068208
-0.040436,0.025483,-0.10697,-0.068513,-0.28855,-0.030976,0.016022,-0.020905
-0.072786,0.070649,-0.13687,-0.18296,0.052338,-0.068208,0.04593,-0.0096132
-0.089265,0.074006,-0.12863,-0.11795,0.06363,0.034333,0.056306,0.023346
-0.091096,0.056306,-0.10147,-0.090486,-0.017243,0.041657,0.088655,0.061494
-0.099947,0.06363,-0.11124,-0.094453,-0.0090028,0.025177,0.05417,0.066377
-0.089265,0.022126,-0.059968,-0.083772,-0.016938,0.0019837,0.02121,0.065156
-0.052033,-0.03006,-0.035859,-0.068818,-0.00076295,-0.010224,0.030365,0.072175
-0.017548,-0.056306,-0.024872,-0.080415,0.023346,0.013275,0.069429,0.083772
-0.020294,-0.070039,-0.0041199,-0.060273,0.065766,-0.034943,0.051728,0.084382
0.0065614,-0.121,0.0065614,-0.019379,0.17716,-0.10056,0.023041,0.071565
0.023957,-0.15183,0.013581,-0.015106,0.15061,-0.065156,-0.045014,-0.0035096
0.061799,-0.15366,0.015717,0.0053407,0.0028992,0.058747,0.019684,-0.027008
0.057527,-0.1146,-0.017853,-0.09781,-0.30472,0.35813,0.24918,-0.11185
0.026093,-0.081941,-0.040742,-0.084382,-0.090791,0.12589,0.23148,-0.11368
-0.009308,-0.044709,-0.066072,-0.058442,0.18296,-0.03769,0.25315,-0.078279
-0.056001,0.017243,-0.10239,-0.060273,-0.039521,0.13718,-0.23453,-0.051423
-0.023041,-0.034638,-0.090791,-0.017243,-0.092317,-0.10819,-1.1235,-0.015412
-0.071565,0.022736,-0.12467,-0.17594,0.081941,-0.12039,0.067903,0.065766
-0.11368,0.099336,-0.13382,-0.21103,-0.056916,0.073091,0.27359,0.042267
-0.084993,0.037995,-0.11032,-0.065461,0.02945,-0.25223,0.036164,0.11826
-0.097505,0.02945,-0.099336,-0.08072,0.31662,-0.42374,0.084382,0.058137
-0.11032,0.044404,-0.08835,-0.15946,0.017548,0.39231,0.19577,0.055085
-0.066987,-0.002594,-0.056001,-0.060578,-0.030671,0.4799,0.23209,0.11002
-0.043793,-0.028534,-0.049287,-0.043488,-0.057221,0.069429,0.25376,0.092317
-0.027314,-0.023957,-0.026703,-0.11032,0.36393,0.099336,0.13687,0.074006
-0.022431,-0.062715,0.00045777,-0.084382,0.012055,-0.11643,-0.27665,0.016938
0.016022,-0.12253,0.027314,0.0053407,-0.56596,-0.645,-0.27268,-0.019379
0.039826,-0.14572,0.010834,-0.032502,-0.50278,0.18235,0.34287,-0.052644
0.048066,-0.1326,-0.010529,-0.036774,0.12467,0.019989,0.28244,-0.053559
0.051423,-0.13138,-0.0077821,-0.065156,0.24399,-0.025483,-0.7042,-0.095979
0.045319,-0.093843,-0.040436,-0.027008,0.07187,0.087739,-0.39872,-0.12741
-0.0035096,-0.058442,-0.061799,-0.012665,0.05417,0.25772,0.41794,-0.065461
-0.025177,-0.01236,-0.11154,-0.12161,0.068513,0.24826,0.21103,-0.050507
-0.039216,0.020294,-0.097505,-0.12558,0.067292,0.16831,-0.26383,-0.015106
-0.083467,0.055085,-0.13352,-0.1146,0.051423,-0.33982,-0.61295,0.013275
-0.071565,0.060273,-0.13626,-0.10086,0.095369,-0.80034,-0.031586,0.030976
-0.058137,0.045319,-0.078584,-0.097505,-0.062715,0.078889,0.4155,0.11582
-0.059052,0.015106,-0.0972,-0.065461,-0.16373,0.0062562,0.02121,0.10239
-0.085908,0.048066,-0.095369,-0.16739,-0.018769,0.38102,0.17136,0.096284
-0.04715,-0.032502,-0.039826,-0.0795,-0.033722,0.21836,0.31754,0.09659
-0.041047,-0.057832,-0.026398,-0.041047,0.039826,-0.21347,0.14389,0.017853
-0.033722,-0.044404,-0.029755,-0.10452,0.070649,0.098726,-0.26658,-0.030976
0.0047303,-0.082551,0.026398,-0.048371,-0.083772,0.168,-0.33921,0.016938
0.062104,-0.1564,0.031891,0.033722,0.045624,0.015412,0.34409,0.059663
0.053559,-0.13413,-0.030671,-0.030976,0.096284,0.026093,0.34257,-0.021515
0.034943,-0.11429,-0.023041,-0.053254,0.1149,-0.12467,0.11398,-0.14847
0.02945,-0.10056,-0.019684,-0.039521,-0.018158,0.040131,-0.309,-0.15244
0.0010681,-0.074922,-0.024567,-0.039521,0.090791,-0.041047,-0.41032,-0.081331
-0.030365,-0.039826,-0.072175,-0.12192,0.07248,-0.033417,-0.028534,-0.016938
-0.06302,0.0206,-0.12253,-0.10147,-0.04593,0.072175,0.13779,0.040436
-0.079194,0.057527,-0.13474,-0.12467,-0.025788,0.045319,0.17441,0.089876
-0.078889,0.034333,-0.095064,-0.060578,0.030976,0.23575,0.16037,0.082246
-0.093538,0.053254,-0.1323,-0.089265,-0.049592,0.28489,0.121,0.059968
-0.11582,0.075227,-0.1088,-0.19547,0.051728,0.057221,0.0016785,0.056306
-0.098116,0.059358,-0.093233,-0.089265,-0.26658,-0.52201,0.0047303,0.12772
-0.034943,0.030671,-0.077058,-0.069123,-0.61692,-0.093538,0.40726,0.17868
0.0016785,-0.045319,-0.038605,-0.065766,0.25345,0.32914,0.67826,0.086213
0.0028992,-0.10025,0.020294,-0.018463,0.77409,-0.10666,0.068513,0.010529
-0.0068666,-0.10208,0.01236,-0.066377,0.28946,-0.40818,-0.62943,-0.034638
0.0050355,-0.12222,-0.0077821,-0.085603,-0.047456,0.052644,-0.70695,-0.077363
0.0010681,-0.11368,0.00045777,-0.030671,0.041657,0.027314,-0.50767,-0.10575
0.019684,-0.12406,-0.00015259,-0.01297,-0.33585,0.1738,-0.017548,-0.10117
0.012665,-0.10239,-0.022126,-0.055695,-0.13169,0.002594,0.015717,-0.12009
-0.0044251,-0.10819,-0.026093,-0.052338,-0.21897,0.0068666,0.16953,-0.064851
-0.036469,-0.036774,-0.069123,-0.094453,-0.26322,0.10483,0.14664,-0.0080873
-0.027008,-0.023957,-0.08072,-0.10788,-0.002594,-0.0068666,0.11246,0.036164
-0.034638,0.015412,-0.10452,-0.11093,0.22293,0.18601,0.14725,0.070649
-0.059358,0.033722,-0.12467,-0.076448,0.54368,0.24735,0.099641,0.055085
-0.066072,0.05417,-0.13352,-0.084382,-0.0047303,0.067292,0.13901,0.095674
-0.070954,0.058442,-0.13535,-0.12161,0.088655,-0.72007,-0.053864,0.055695
-0.075227,0.044404,-0.090181,-0.10697,-0.43778,0.053559,-0.11765,0.032197
-0.075532,0.037995,-0.081025,-0.079194,-0.099641,0.18387,-0.040742,0.063325
-0.027619,-0.024567,-0.050813,-0.14267,-0.065766,0.019074,0.019684,0.061799
-0.037385,-0.013886,-0.059358,-0.12253,-0.24216,0.15579,0.13077,0.037995
-0.013581,-0.068513,-0.00076295,0.019379,0.11612,0.14725,0.20493,0.05417
-0.014191,-0.075837,0.0044251,-0.064851,0.21256,0.088655,0.26627,0.043488
0.043793,-0.17594,0.034638,0.023651,0.053254,-0.16922,0.309,0.01297
0.017548,-0.10971,-0.002594,-0.092927,0.73106,-0.11612,0.49271,0.031586
0.028229,-0.11032,-0.0206,-0.078279,0.4036,-0.2153,-0.070954,-0.027008
0.013581,-0.095979,-0.015412,-0.11307,-0.045624,-0.17319,-1.2877,-0.11185
0.017548,-0.08835,-0.039216,-0.034638,-0.6688,0.72435,-0.33555,-0.087739
0.017853,-0.068513,-0.077058,0.019379,-0.9688,0.64225,0.53849,-0.051423
-0.0056458,-0.011749,-0.11032,-0.05539,0.71397,-0.7335,-0.1622,-0.12345
-0.066682,0.044099,-0.10971,-0.12436,1.2697,-0.63401,-0.47135,-0.13962
-0.073396,0.042267,-0.12131,-0.1091,-0.16739,1.0469,0.15274,0.017243
-0.093233,0.060273,-0.11246,-0.12985,-1.1141,0.14328,0.20981,0.075837
-0.13352,0.078279,-0.10422,-0.15793,0.29404,-0.53269,0.017853,0.053864
-0.073701,0.036469,-0.098726,-0.074311,-0.072175,0.27756,0.23117,0.15244
-0.018769,0.046235,-0.09659,-0.078279,-0.019379,0.14908,0.11917,0.17685
-0.017243,-0.014801,-0.038605,-0.064546,0.30259,-0.20432,-0.0795,0.099641
0.0013733,-0.074922,-0.019074,-0.060273,0.18265,0.11643,0.17136,0.08835
0.002594,-0.093538,0.0022889,-0.068513,0.15885,-0.26871,0.23575,0.099641
0.0028992,-0.11429,0.013886,-0.04715,-0.26474,-0.486,0.14725,0.058137
0.016938,-0.13657,0.0016785,-0.044709,-0.072786,0.20737,0.30228,-0.0090028
0.0016785,-0.10422,-0.0065614,-0.038605,0.095369,-0.12222,0.0086976,-0.12436
0.0099184,-0.10208,-0.011444,-0.062715,-0.0972,0.30686,-0.74784,-0.21408
0.0090028,-0.10147,-0.029145,-0.077363,-0.014191,0.24979,-0.59464,-0.17899
-0.020294,-0.075532,-0.035554,-0.048676,0.12314,-0.19852,0.13901,-0.10605
-0.038911,-0.048981,-0.079194,-0.051423,0.049287,0.071565,0.33921,-0.046845
-0.010529,-0.023346,-0.09659,-0.06302,0.030976,0.056916,0.28641,0.023651
-0.017548,0.044709,-0.121,-0.12436,0.041657,-0.039826,0.34592,0.06302
-0.070039,0.04715,-0.1326,-0.12192,-0.011139,-0.16617,-0.05539,0.049897
-0.099336,0.074006,-0.13443,-0.10452,0.017243,-0.017548,-0.48112,0.094453
-0.13352,0.068208,-0.10605,-0.092622,-0.043488,0.52171,0.40391,0.12497
-0.12772,0.073396,-0.10971,-0.1149,-0.07126,0.091402,0.44144,0.12222
-0.08835,0.045319,-0.060273,-0.15946,-0.01297,-0.2858,-0.3917,0.042267
-0.031281,-0.04654,-0.014496,-0.012055,-0.075227,-0.11643,-1.1357,-0.04715
-0.030976,-0.054475,-0.035554,-0.062409,-0.024262,-0.023346,-0.10422,0.012055
-0.0050355,-0.12467,0.040436,-0.033417,0.03006,0.024262,0.49577,0.03769
0.036774,-0.1387,-0.0074769,-0.025483,-0.017243,0.12314,0.24826,0.07126
0.036774,-0.11826,-0.012665,-0.087129,0.075532,0.099336,0.25345,0.057221
0.0383,-0.11276,0.0056458,-0.059663,0.13931,-0.063325,0.22965,-0.0032044
0.066377,-0.14267,0.014191,0.015717,0.082551,-0.13504,-0.026398,-0.048676
0.039216,-0.092622,-0.053254,-0.059663,-0.1091,0.14115,-0.30991,-0.065766
-0.0010681,-0.053864,-0.079194,-0.11582,0.041657,0.0083925,0.079194,-0.053559
-0.016632,-0.022126,-0.081331,-0.09781,0.023651,0.26566,0.17105,-0.022126
-0.029755,0.027314,-0.12436,-0.084688,0.17838,0.26383,-0.31632,-0.010224
-0.026703,0.022431,-0.11826,-0.067597,0.20554,0.0086976,-0.0972,0.011444
-0.063935,0.076143,-0.13901,-0.15061,-0.082856,-0.44144,0.16098,0.0032044
-0.070954,0.070649,-0.10269,-0.1088,-0.73991,-0.33982,0.010834,0.015106
-0.074922,0.036469,-0.086519,-0.081331,-0.33158,0.24216,0.029755,0.04593
-0.075227,0.036164,-0.10117,-0.091707,0.21439,-0.019074,-0.03769,0.041657
-0.058747,-0.026093,-0.035554,-0.052338,0.053559,0.168,0.030976,0.072786
-0.040742,-0.024872,-0.056916,-0.10941,-0.083162,0.13687,0.074006,0.071565
-0.03769,-0.055695,-0.017548,-0.052644,0.39078,0.00076295,0.03769,0.039521
-0.0083925,-0.093538,0.0062562,-0.041657,0.3154,-0.44266,0.019684,0.046235
0.012055,-0.11612,0.0038148,-0.08957,-0.031281,-0.14389,0.045014,0.027314
0.0074769,-0.10788,0.010834,-0.053254,-0.017243,0.18448,0.094148,-0.017548
-0.00015259,-0.12406,0.0074769,-0.034333,-0.02945,0.089876,0.1445,-0.0096132
0.02121,-0.13352,-0.01236,-0.016327,0.016938,0.085298,0.10452,0.0010681
0.039521,-0.090791,-0.038605,-0.053254,0.030976,0.053254,0.052338,-0.045014
0.015106,-0.041962,-0.070039,-0.087129,0.023041,-0.02121,-0.070649,-0.090791
-0.025177,-0.021515,-0.092012,-0.046845,0.065156,0.063325,-0.34531,-0.11551
-0.056916,0.041962,-0.13687,-0.13931,0.074617,0.28428,-0.087739,-0.040436
-0.085298,0.045319,-0.12497,-0.11582,-0.044709,0.21653,0.14298,0.013581
-0.081941,0.037995,-0.11612,-0.10727,-0.06363,-0.31052,0.14481,0.051118
-0.094148,0.051118,-0.1088,-0.11582,0.051728,-0.44816,0.010529,0.029145
-0.10544,0.070649,-0.092317,-0.092927,0.17441,0.042573,-0.11612,0.052338
-0.075532,0.025177,-0.086824,-0.038911,-0.37522,0.028229,0.016938,0.092927
-0.045624,-0.022431,-0.044709,-0.063325,-0.38956,0.00045777,0.070039,0.097505
-0.049592,-0.034028,-0.028534,-0.13138,0.043183,-0.058137,0.016632,0.057527
-0.0086976,-0.096895,0.0041199,-0.050813,0.51041,0.069123,0.009308,0.042267
0.036774,-0.11337,0.016022,-0.027314,0.0096132,0.4802,0.12314,0.043793
0.083772,-0.14755,0.0080873,0.0044251,-0.103,0.26627,0.10605,0.017243
0.08072,-0.13291,-0.018158,-0.03769,0.091707,0.069429,-0.0090028,-0.024262
0.056611,-0.10361,0.0035096,-0.062715,-0.013581,-0.63554,-0.22232,-0.088045
0.017548,-0.091402,-0.016632,-0.060883,-0.019074,-0.44602,-0.18326,-0.12955
-0.025788,-0.059663,-0.051118,-0.12924,0.071565,0.72221,0.32639,-0.021515
-0.053864,-0.035554,-0.069429,-0.087129,0.21073,0.27268,0.52384,0.090486
-0.075532,-0.0041199,-0.10147,-0.044404,0.71916,-0.027008,0.52598,0.095979
-0.057832,0.014191,-0.12619,-0.11185,0.16342,0.12467,0.25223,0.014801
-0.051118,0.044709,-0.13107,-0.07248,-1.3768,0.3975,-0.68711,-0.1033
-0.1265,0.094148,-0.13565,-0.11246,-0.64256,-0.62699,-1.5633,-0.15946
-0.12131,0.079194,-0.10147,-0.10269,0.31052,-0.49516,0.094759,0.017243
-0.087739,0.039216,-0.095979,-0.1265,0.56443,-0.44022,0.21988,0.088045
-0.094148,0.015717,-0.068818,-0.094759,0.25559,-0.19425,0.030365,0.037385
-0.06302,-0.016632,-0.034333,-0.10727,-0.11978,0.24796,0.15854,0.078279
-0.025788,-0.067903,-0.012055,-0.061799,0.010834,0.11185,0.11582,0.1442
0.011139,-0.10452,0.0022889,-0.041352,-0.028229,0.17777,0.2153,0.16129
0.033722,-0.092927,0.0062562,-0.034638,0.0016785,0.15213,0.29679,0.079805
0.043183,-0.13169,0.017548,-0.02884,0.063935,0.098421,0.38956,0.010834
0.050202,-0.12192,-0.0044251,-0.045319,0.064546,0.081025,0.30045,-0.064851
0.050507,-0.10636,-0.024262,-0.041352,0.050202,0.044709,-0.0013733,-0.077974
0.040436,-0.11063,-0.032807,-0.056611,0.061799,-0.02884,-0.67155,-0.13046
0.012665,-0.070039,-0.052949,-0.064851,0.061494,-0.030976,-0.49607,-0.12192
-0.014801,-0.030671,-0.091096,-0.091402,0.029145,-0.00015259,-0.1265,-0.050813
-0.044709,0.018463,-0.11032,-0.091402,0.057527,0.0383,0.13077,-0.024262
-0.04715,0.027314,-0.094453,-0.040131,0.21683,0.063325,0.26413,0.012665
-0.077058,0.056306,-0.13107,-0.099031,0.1857,0.022736,0.098116,0.064546
-0.08011,0.067597,-0.121,-0.18173,-0.10086,0.045319,0.23331,0.098726
-0.079805,0.05417,-0.1088,-0.15579,-0.58518,-0.12345,0.26017,0.048981
-0.0795,0.034028,-0.084993,-0.090486,-0.25376,-0.22965,-0.10849,0.069734
-0.085603,0.0041199,-0.027008,-0.034943,0.095674,0.009308,-0.63462,0.011139
-0.04715,-0.032807,-0.041657,-0.08835,0.093843,0.20432,0.12375,0.097505
-0.016632,-0.052033,-0.039826,-0.093538,-0.011444,0.39139,0.61875,0.14176
0.017243,-0.10758,0.02182,-0.03006,-0.069734,0.21134,0.3389,0.034333
0.066072,-0.18875,0.032807,0.027008,0.096284,-0.26658,0.47105,-0.031281
0.05417,-0.14817,0.00076295,0.0035096,0.067597,-0.17624,-0.45487,-0.1326
0.022736,-0.10849,-0.038911,-0.098421,0.0206,-0.0074769,-1.6426,-0.16403
0.017548,-0.088045,-0.010529,-0.069429,0.056001,0.013886,0.13809,-0.057832
-0.0032044,-0.065766,-0.034028,-0.041047,0.044404,-0.27237,0.58824,-0.009308
-0.0096132,-0.04654,-0.077363,-0.046235,0.13626,-0.33219,0.37156,-0.049287
-0.095064,0.026703,-0.10727,-0.1207,0.11582,0.37766,0.54795,-0.050507
-0.1265,0.076448,-0.15396,-0.15061,-0.15152,0.78264,0.44938,0.019379
-0.0795,0.053254,-0.11124,-0.091402,-0.12161,-0.084382,0.10849,0.15732
-0.058747,0.033112,-0.10086,-0.12375,0.056916,0.013886,-1.0344,0.10971
-0.057221,0.016022,-0.10666,-0.121,0.41611,-0.031891,-0.63401,0.071565
-0.076143,0.021515,-0.11154,-0.11795,-0.12345,-0.3856,0.26413,0.023651
-0.069123,0.011139,-0.074311,-0.083772,-0.59525,-0.26566,0.11887,-0.0019837
-0.047761,-0.0068666,-0.03769,-0.081636,0.12863,0.15335,0.18082,0.079805
-0.050507,-0.013886,-0.034333,-0.067597,0.15793,-0.011749,0.2742,0.086824
0.019379,-0.098726,0.0062562,-0.014496,-0.19638,0.11704,0.13504,0.072175
0.057221,-0.13138,0.0065614,-0.032197,-0.13321,0.05539,0.11704,0.018769
0.034333,-0.10788,-0.00076295,-0.066377,0.14572,0.034943,-0.039521,-0.069734
0.041657,-0.12375,0.015412,-0.012055,0.0086976,0.050202,-0.36179,-0.095064
0.049897,-0.13291,-0.0062562,-0.064546,-0.04593,0.06302,0.010834,-0.10361
0.04654,-0.10452,-0.018769,-0.065461,-0.21286,0.27543,0.37003,-0.087434
