-0.14633,0.10575,-0.13474,-0.12589,-0.12192,0.035248,0.014801,0.095674
-0.12833,0.10666,-0.1146,-0.11643,-0.021515,-0.027924,0.12985,0.15732
-0.14847,0.094148,-0.11734,-0.12314,-0.04654,0.04715,0.27115,0.25406
-0.10391,0.045319,-0.08896,-0.09659,-0.052033,0.077363,0.18784,0.17472
-0.040436,-0.076143,-0.0086976,-0.11185,-0.103,0.048066,0.082856,0.098726
0.032197,-0.18753,0.036164,-0.020294,-0.034333,0.0071717,0.11307,-0.012665
0.045014,-0.19028,-0.0086976,-0.018463,0.056916,-0.017853,-0.056916,-0.10575
0.06302,-0.22416,0.016632,-0.045319,0.081636,-0.047761,-0.19242,-0.1323
0.06363,-0.074006,0.021515,0.0080873,0.060273,0.035554,-0.043488,-0.086213
0.049592,-0.047761,-0.026398,-0.012665,0.089265,0.01236,0.060273,0.00045777
-0.0047303,-0.018769,-0.036164,-0.084382,0.093233,-0.036469,0.051118,0.016022
-0.010529,0.00015259,-0.033722,-0.06363,0.018769,0.043183,0.023957,0.023957
0.014801,-0.034638,-0.052033,-0.064851,0.0090028,0.059052,0.12436,0.017243
-0.011444,-0.0047303,-0.084993,-0.076448,0.02884,-0.0077821,0.058137,-0.034333
-0.050507,0.058747,-0.11276,-0.096284,0.029145,-0.015412,-0.0083925,-0.050507
0.013275,0.0065614,-0.15244,-0.11337,-0.00045777,0.018463,-0.058137,-0.030671
0.0080873,-0.05539,-0.082856,-0.1146,-0.00076295,-0.012055,-0.21927,-0.087129
-0.048981,-0.032502,-0.10147,-0.12802,-0.026398,-0.010224,-0.016938,-0.067903
-0.12131,0.013275,-0.11521,-0.15335,-0.043183,-0.0099184,-0.01236,-0.023346
-0.11002,0.036469,-0.098116,-0.10758,-0.032807,-0.052949,-0.27665,0.037079
-0.09781,-0.0035096,-0.08011,-0.051423,-0.032197,0.014191,-0.27481,0.08072
-0.088045,0.02121,-0.044099,-0.060273,-0.0032044,0.062104,0.15396,0.11551
-0.05539,-0.025483,0.017243,-0.038605,0.04715,-0.027314,0.12985,0.1384
-0.016327,-0.10605,0.03006,-0.016327,0.039216,0.040131,0.12894,0.13413
0.0086976,-0.11643,-0.016327,-0.0206,-0.076753,0.11368,0.10239,0.045319
0.02121,-0.13687,-0.0016785,-0.019074,-0.11582,-0.00076295,0.005951,0.0041199
-0.00045777,-0.070649,-0.0022889,-0.034333,0.074617,-0.066072,0.15396,-0.048371
-0.0083925,-0.048676,-0.065766,-0.06363,0.10452,-0.078279,0.17441,-0.041962
0.0010681,-0.10819,-0.016327,-0.07126,0.072175,-0.016327,0.14664,-0.032807
-0.015412,-0.11795,-0.052644,-0.099947,0.065156,0.085298,0.013581,-0.059968
-0.025483,-0.027619,-0.11337,-0.10849,0.025788,0.052338,-0.22965,0.0032044
-0.034638,0.04654,-0.12467,-0.099947,0.0047303,-0.02182,-0.26963,0.031891
-0.056001,0.085908,-0.12284,-0.11765,-0.010224,0.014801,-0.067903,0.0016785
-0.058747,0.049592,-0.10452,-0.077058,-0.025483,0.020905,0.0071717,-0.013581
-0.065461,0.065461,-0.12497,-0.12985,-0.029755,-0.00015259,-0.041352,0.027008
-0.048981,0.014496,-0.095369,-0.08957,-0.048371,-0.019074,-0.20615,0.01297
-0.052644,0.00045777,-0.067292,-0.058442,-0.023346,-0.036469,0.025788,-0.029755
-0.061189,0.025483,-0.052338,-0.1384,0.0016785,0.018769,0.13809,0.0086976
-0.065766,-0.01297,-0.027924,-0.10971,-0.019074,0.07248,0.12802,0.034943
0.0050355,-0.096895,0.012055,0.0053407,-0.04715,0.068513,0.103,0.047761
0.024262,-0.12985,-0.0038148,-0.0022889,0.0056458,0.030976,0.055695,0.016938
0.029755,-0.13413,0.032197,-0.060578,0.070649,-0.026093,0.020294,-0.017548
-0.0096132,-0.1146,0.0041199,-0.043488,0.067903,-0.027314,0.02884,-0.018158
0.0038148,-0.050202,-0.04715,-0.049287,0.048981,0.0044251,-0.0028992,-0.047456
0.0071717,-0.13901,0.0062562,-0.047761,0.069123,-0.0019837,-0.016327,-0.059052
0.027619,-0.11154,-0.064851,-0.1149,0.041657,0.045014,0.020294,-0.017548
0.01297,-0.022431,-0.12711,-0.1857,0.012055,0.056916,0.016022,0.0071717
-0.029145,-0.0038148,-0.14084,-0.070344,-0.025483,0.037079,0.015717,-0.047456
-0.043793,0.062715,-0.15183,-0.086824,-0.016327,0.032197,0.020294,-0.0071717
-0.055085,0.04654,-0.086213,-0.079194,0.0041199,0.009308,0.016632,0.057527
-0.057221,0.019074,-0.103,-0.099947,-0.013581,-0.0074769,0.031281,0.065461
-0.07126,0.022736,-0.098421,-0.0972,-0.024872,-0.017853,0.097505,0.075837
-0.066682,0.015106,-0.10117,-0.10666,-0.029145,-0.025483,0.1323,0.040436
-0.060578,0.040436,-0.02884,-0.022736,-0.034943,-0.0074769,-0.071565,0.049287
-0.04715,0.017853,-0.042573,-0.0065614,-0.020294,-0.011139,-0.091096,0.062409
-0.024262,-0.038605,-0.031891,-0.11276,0.015412,-0.011139,0.019684,0.061189
-0.0028992,-0.034638,-0.0041199,-0.16342,0.024262,0.017853,0.033112,0.070344
0.031586,-0.16617,0.048981,-0.059358,0.042267,0.010529,0.016938,0.016938
0.045624,-0.21195,0.038911,0.02945,0.060578,-0.0062562,0.030976,-0.031281
0.046235,-0.17472,-0.013581,-0.037385,0.07187,-0.0090028,-0.024872,-0.063325
0.023041,-0.088655,-0.0383,-0.093843,0.04593,0.009308,-0.13443,-0.065766
-0.010529,-0.037385,-0.04715,-0.069429,0.014801,0.018463,-0.015106,-0.055695
-0.011139,-0.055695,-0.077974,-0.072175,0.073701,0.025177,0.03769,-0.035554
-0.0071717,-0.077974,-0.052949,-0.074922,0.11215,0.02884,0.017853,-0.0206
-0.041047,-0.093843,-0.099031,-0.05478,0.078584,0.010529,0.021515,-0.0056458
-0.083467,0.04654,-0.1619,-0.10575,-0.11704,0.005951,-0.012055,-0.015412
-0.086213,0.13199,-0.13321,-0.11093,-0.37034,0.051728,0.011749,0.0080873
-0.085908,0.12772,-0.08896,-0.10239,0.10208,-0.015412,0.04654,0.027619
-0.10513,0.15183,-0.11276,-0.093843,-0.016938,-0.054475,0.048371,0.054475
-0.10605,0.088045,-0.06424,-0.061799,-0.01236,-0.0090028,0.059968,0.095674
-0.066987,-0.027314,-0.02182,-0.099947,0.011139,0.014191,0.071565,0.11551
-0.028534,-0.074006,-0.047761,-0.12528,-0.0062562,0.018158,0.13901,0.1091
-0.031586,-0.10147,-0.03006,-0.075532,0.023651,-0.025177,-0.016327,0.049897
-0.010224,-0.13565,0.014801,-0.013581,0.034333,-0.014801,-0.2681,0.0013733
0.043183,-0.14298,0.024872,-0.02884,0.032807,0.10849,0.081331,0.019074
0.065156,-0.12741,0.019989,-0.056306,-0.035859,0.28885,0.11521,-0.081025
0.048981,-0.05417,-0.063935,-0.067597,-0.044404,0.17227,-0.022736,-0.15824
0.020294,-0.032197,-0.02884,-0.047456,0.14176,-0.41642,-0.21958,-0.10544
-0.0028992,-0.0795,-0.040742,-0.056916,0.1503,-0.12467,-0.29709,-0.033417
-0.011444,-0.074311,-0.079194,-0.083162,0.14481,-0.0041199,-0.030671,-0.076143
-0.019684,-0.058442,-0.10422,-0.10056,0.103,-0.057527,0.13779,-0.056001
-0.029755,-0.05539,-0.10727,-0.092317,0.070039,-0.056001,0.13931,-0.05478
-0.050507,-0.028229,-0.13382,-0.13077,-0.074617,-0.0074769,-0.00045777,-0.01297
-0.055695,0.024567,-0.13169,-0.16312,-0.39139,0.21439,0.015106,0.060578
-0.069429,0.081636,-0.05478,-0.053254,-0.22538,0.1149,0.090486,0.085298
-0.099641,0.087739,-0.099336,-0.079194,0.059052,-0.025177,0.085298,0.13626
-0.10788,0.061494,-0.094148,-0.083467,0.050507,0.0019837,0.063325,0.1973
-0.078889,-0.0028992,-0.027619,-0.04654,0.0206,0.021515,0.049287,0.21714
-0.068208,-0.0062562,-0.042267,-0.10971,0.048981,0.0050355,0.019074,0.11276
-0.057221,-0.05417,-0.023957,-0.044404,0.067597,-0.019379,0.051728,0.050507
-0.013581,-0.086519,-0.0099184,-0.051118,0.084077,-0.022126,0.06424,0.059663
0.023957,-0.12222,0.018769,-0.04715,0.083162,0.010834,-0.0086976,0.0013733
0.04715,-0.1735,0.011749,-0.036774,0.002594,0.077363,0.009308,-0.074617
0.013886,-0.081636,-0.037079,-0.07126,-0.0096132,0.031281,-0.0083925,-0.14176
0.016632,-0.036469,-0.042573,-0.080415,-0.033417,0.022126,-0.018158,-0.09781
0.015412,-0.01236,-0.072175,-0.081331,-0.072175,0.042267,-0.00045777,-0.067903
0.005951,-0.014191,-0.057832,-0.079194,0.04593,0.0068666,0.031586,-0.073701
-0.043793,0.0013733,-0.11307,-0.099641,0.061189,0.0099184,0.089265,-0.063935
-0.084382,-0.042267,-0.07126,-0.031281,0.034333,0.010529,0.092927,-0.037385
-0.069734,-0.11734,-0.078889,0.019684,0.039521,-0.12222,0.021515,-0.014191
-0.011444,-0.098726,-0.13046,-0.215,0.012055,-0.023041,0.086824,0.013275
-0.041962,0.022126,-0.092622,-0.20066,0.025788,-0.0050355,-0.04654,0.024262
-0.065766,0.041657,-0.069123,-0.02884,-0.027619,-0.036164,-0.19455,0.057221
-0.022431,0.042267,-0.060883,-0.03006,-0.079805,0.046235,-0.098116,0.08835
0.019684,0.068513,-0.074006,-0.13321,-0.011444,0.035554,0.026093,0.051118
0.0038148,0.0032044,-0.030365,-0.1265,-0.009308,0.027314,0.033112,0.065156
-0.01236,-0.072175,-0.002594,-0.026703,-0.010834,0.015106,0.00076295,0.096895
0.030365,-0.099947,-0.086213,-0.040436,0.024872,0.010224,-0.018158,0.055085
0.070039,-0.1268,0.019379,-0.043488,0.050507,0.02884,-0.0028992,-0.017548
0.065766,-0.23423,0.084077,0.009308,0.045624,0.014191,0.0096132,-0.064546
0.023346,-0.18357,-0.018463,-0.014496,0.056916,0.005951,-0.002594,-0.081025
-0.057221,-0.044099,-0.042573,-0.069734,0.002594,0.0038148,-0.0083925,-0.084077
-0.093843,0.021515,-0.084688,-0.095369,-0.056001,0.038605,0.059358,-0.016632
-0.090791,0.017548,-0.11734,-0.079805,-0.016632,0.033417,0.10361,0.012055
-0.099031,0.065156,-0.13046,-0.092317,0.019989,-0.0096132,0.033417,0.017853
-0.08835,0.073091,-0.10666,-0.08835,0.26749,-0.075227,0.037385,0.048066
-0.09781,0.049897,-0.083162,-0.11154,0.16953,-0.019379,-0.0053407,0.022126
-0.12192,0.076143,-0.13474,-0.16495,-0.168,0.019074,-0.066682,0.029755
-0.086824,0.045319,-0.103,-0.1387,-0.038605,-0.034333,-0.15244,0.082551
-0.077974,0.056611,-0.090791,-0.092927,-0.01236,-0.0096132,-0.045014,0.079194
-0.050813,-0.0206,-0.0077821,-0.0383,-0.024567,0.0083925,0.17105,0.045014
-0.048981,-0.0038148,-0.051118,-0.11154,0.005951,0.0038148,0.18936,0.04593
-0.037385,-0.06424,-0.013886,-0.048371,-0.066987,0.00076295,-0.27604,0.010529
0.017548,-0.10483,-0.019684,-0.022126,-0.22019,0.051118,-0.24552,-0.016327
0.041047,-0.098726,-0.020905,-0.070344,-0.01236,0.072175,0.085603,-0.0083925
0.043488,-0.090791,-0.022431,-0.076753,0.072175,0.077668,0.22171,0.0047303
0.078584,-0.15763,0.024872,-0.049287,0.033112,0.072786,0.20554,0.019989
0.11063,-0.20005,0.012665,-0.013581,0.067903,0.03006,0.16892,-0.030671
0.082246,-0.17685,0.028534,-0.016632,0.090791,0.014191,0.23697,-0.068818
0.042267,-0.22995,-0.059358,-0.060273,0.078279,-0.019684,0.02945,-0.087739
-0.030365,-0.12406,-0.082246,-0.07126,0.040436,-0.03006,-0.34592,-0.088045
-0.07126,0.052033,-0.14878,-0.090486,0.019379,-0.017243,-0.21134,-0.044709
-0.091402,0.13169,-0.16587,-0.12711,0.010529,-0.04593,-0.21408,0.013581
-0.12772,0.17807,-0.14389,-0.11032,-0.025483,0.028534,0.074006,0.047456
-0.16464,0.1619,-0.1149,-0.1384,-0.027008,0.015412,0.18479,0.057221
-0.087434,0.074006,-0.081941,-0.10513,-0.049592,0.02121,-0.0074769,0.090791
-0.051728,0.016632,-0.086519,-0.11185,-0.049897,-0.00076295,-0.061189,0.081941
-0.057527,0.019684,-0.055085,-0.099336,-0.017548,-0.034028,-0.0044251,0.037079
-0.033417,-0.02884,-0.038605,-0.062715,-0.030671,0.00076295,-0.02884,0.048371
0.0074769,-0.096284,-0.0074769,-0.045014,-0.012055,-0.0068666,-0.20493,0.031891
0.043183,-0.12375,0.005951,-0.0090028,0.032807,0.025483,0.050202,0.024872
0.075532,-0.14786,0.023651,-0.033722,0.055695,0.038911,0.1445,-0.023346
0.095979,-0.14054,-0.012665,-0.10666,0.062104,0.013275,0.095674,-0.08896
0.061189,-0.10788,-0.018158,-0.058137,0.065461,0.005951,0.07187,-0.07126
0.0099184,-0.10147,-0.023651,-0.085908,0.048066,0.0053407,0.063935,-0.050507
-0.0041199,-0.10483,-0.020905,-0.018158,0.037385,0.0053407,0.12924,0.002594
-0.030671,-0.040742,-0.066377,-0.032197,0.023041,0.019074,0.068513,0.0096132
-0.10452,0.075227,-0.12741,-0.0972,-0.0035096,0.010529,-0.047456,-0.024262
-0.13779,0.13748,-0.13901,-0.10513,-0.020905,0.0083925,-0.0080873,0.022736
-0.14572,0.1146,-0.18143,-0.1854,-0.032197,0.020294,0.030365,0.043488
-0.13779,0.074617,-0.10422,-0.12924,-0.041352,0.0206,-0.015412,0.076448
-0.10636,-0.0028992,-0.041047,-0.068818,-0.016327,-0.0032044,-0.0010681,0.12039
-0.091096,-0.032197,-0.067292,-0.093538,0.0047303,-0.011444,0.025177,0.095369
-0.059663,-0.088045,-0.034943,-0.081636,-0.039826,0.019379,0.027314,0.07187
-0.024262,-0.11429,-0.0065614,-0.016938,-0.027008,0.016938,0.022126,0.043183
-0.018463,-0.030976,-0.034333,-0.015412,0.021515,-0.0013733,0.0047303,0.014801
0.0041199,0.0022889,-0.039216,-0.10269,0.051118,-0.015717,-0.014801,0.00076295
0.031586,-0.084382,0.0062562,-0.15061,0.030365,0.0099184,0.009308,0.0013733
0.051728,-0.11765,-0.070954,-0.06424,-0.009308,0.053559,0.045014,-0.013275
0.09659,-0.21195,0.0062562,0.0071717,0.019074,0.047456,0.051728,-0.038911
0.09659,-0.23819,0.011444,-0.0096132,0.076448,-0.0032044,0.037995,-0.081025
0.037385,-0.11368,-0.0044251,-0.031281,0.082551,-0.0096132,0.041657,-0.10575
0.0016785,-0.10758,-0.059358,-0.079194,0.068513,0.015412,0.0050355,-0.074617
-0.018158,-0.020294,-0.10849,-0.079194,0.034943,-0.00015259,-0.057832,-0.056916
-0.05539,0.048371,-0.0972,-0.103,-0.0013733,-0.025788,-0.11032,-0.020294
-0.099947,0.10636,-0.13169,-0.13718,-0.0090028,-0.023041,-0.015106,0.019074
-0.10575,0.08957,-0.13779,-0.10086,-0.0047303,-0.015412,0.23819,0.059358
-0.10361,0.0795,-0.089265,-0.087739,0.022736,0.0041199,0.058137,0.093843
-0.095979,0.067903,-0.084077,-0.11032,0.039216,-0.0032044,-0.065461,0.10178
-0.081025,0.043488,-0.11704,-0.12528,0.017853,-0.0032044,-0.023041,0.14054
-0.033417,-0.0056458,-0.06424,-0.10544,-0.074006,0.038911,-0.13016,0.13809
-0.0096132,0.0038148,-0.056916,-0.058137,-0.28336,0.087434,-0.13779,0.043488
-0.011444,-0.040436,0.00045777,-0.063325,-0.17472,0.0053407,-0.044709,-0.0065614
0.015106,-0.12497,0.035859,-0.01236,0.069123,-0.012665,0.0050355,-0.030671
0.038911,-0.121,-0.02182,-0.061494,0.094148,0.016327,0.073396,-0.086824
0.050507,-0.13016,0.00045777,-0.044099,0.090486,0.005951,0.103,-0.11337
0.033722,-0.19211,0.0056458,-0.064546,0.075227,0.036469,0.15732,-0.10391
0.027008,-0.1384,0.00045777,-0.050813,0.076143,0.037385,0.1445,-0.092012
0.011139,-0.067597,-0.015412,-0.014191,0.073091,-0.039521,-0.036774,-0.02884
-0.029145,0.013275,-0.11704,-0.082246,0.077363,-0.031281,-0.04593,-0.016938
-0.057221,0.087129,-0.121,-0.10941,0.052338,0.018158,0.15915,-0.010834
-0.082246,0.039216,-0.10239,-0.11337,0.023651,-0.0028992,0.10971,0.057832
-0.10544,0.076143,-0.13077,-0.11521,-0.016938,0.002594,-0.10239,0.082856
-0.11521,0.10666,-0.14694,-0.10391,-0.045319,-0.0090028,-0.32364,0.083467
-0.08896,0.056306,-0.050813,-0.077058,-0.026398,0.0032044,0.015412,0.10544
-0.10178,0.020294,-0.078889,-0.099336,0.10086,-0.027008,0.10788,0.079194
-0.089265,0.0053407,-0.084993,-0.10361,0.094759,-0.027619,0.06363,0.06302
-0.076753,-0.016022,-0.059358,-0.098421,-0.020294,0.017243,0.099641,0.049897
-0.03769,-0.074922,-0.02884,-0.06363,-0.42527,0.099336,0.087739,0.010529
0.020294,-0.12009,0.033417,-0.019074,-0.049897,0.045624,-0.17014,0.044099
0.091707,-0.14206,0.016632,-0.037385,0.15305,-0.039216,-0.24552,0.046235
0.12314,-0.21988,-0.0013733,-0.024567,0.0068666,0.0013733,0.021515,-0.0086976
0.10636,-0.2739,0.017548,-0.02121,0.098116,0.02121,0.098116,-0.057832
0.048371,-0.18173,-0.042573,-0.038605,0.078279,-0.0068666,0.031281,-0.11948
0.029145,-0.072786,-0.05478,-0.058747,0.067597,0.0041199,0.041962,-0.11948
-0.027619,0.044404,-0.081331,-0.11856,0.048371,0.040131,0.043488,-0.082856
-0.073396,0.043793,-0.08011,-0.10575,0.035859,0.023041,0.036774,-0.020905
-0.091096,0.048066,-0.10208,-0.060578,0.05417,-0.013886,0.00076295,0.014191
-0.086213,0.02945,-0.11978,-0.11521,0.024262,-0.0028992,-0.027619,0.025788
-0.076753,0.028534,-0.11917,-0.13443,-0.0050355,0.0047303,0.002594,0.045014
-0.10849,0.02945,-0.08072,-0.11887,-0.030671,0.024262,0.070039,0.075837
-0.099336,-0.0065614,-0.055085,-0.088655,-0.078279,0.01297,0.041657,0.099641
-0.10819,0.052644,-0.11643,-0.08072,-0.12955,0.023346,0.047761,0.085603
-0.10575,0.095674,-0.10269,-0.14054,-0.044404,0.020905,0.086519,0.06302
-0.087129,0.040742,-0.057832,-0.099336,0.012665,0.0086976,0.077363,0.08072
-0.062104,0.011749,-0.017853,-0.040436,0.0041199,0.022431,0.054475,0.081941
-0.02884,-0.02182,0.0083925,-0.030976,0.044404,0.024262,0.09659,0.065156
0.0010681,-0.070954,0.0022889,-0.067597,0.049592,0.017243,0.076753,-0.0044251
0.012665,-0.11185,0.017243,-0.077668,0.042878,-0.019379,-0.020905,-0.056611
0.074311,-0.16037,0.014496,-0.036469,0.074311,-0.069734,-0.095674,-0.052033
0.11246,-0.13199,-0.029145,-0.035554,-0.0053407,0.070344,-0.055085,-0.05539
0.10147,-0.13077,-0.11124,-0.019379,-0.076753,0.1619,-0.043793,-0.084077
0.059358,-0.14786,-0.034638,-0.094759,0.052949,-0.0016785,-0.066682,-0.11185
0.047456,-0.15488,-0.041657,-0.048981,0.093538,-0.036469,-0.045624,-0.081941
0.015717,-0.13901,-0.082246,-0.084382,0.039826,-0.0090028,-0.055085,-0.037385
-0.035554,-0.096895,-0.094453,-0.092622,0.035859,-0.032807,-0.021515,-0.0206
-0.032502,-0.036469,-0.17868,-0.068513,0.009308,0.0099184,0.16526,-0.0035096
-0.085908,0.21134,-0.15763,-0.14115,0.0010681,0.0038148,0.1387,-0.002594
-0.12192,0.28733,-0.077058,-0.10575,-0.00076295,-0.013275,0.14328,0.070649
-0.12955,0.17929,-0.070039,-0.070649,-0.017243,-0.011749,0.11643,0.14267
-0.10452,0.0041199,-0.087129,-0.0972,-0.010529,-0.049897,-0.27298,0.12406
-0.095064,-0.056611,-0.061799,-0.094759,-0.017243,0.051118,-0.21958,0.09781
-0.059358,-0.13687,0.026398,-0.082856,0.0068666,0.068208,0.077363,0.085603
0.012055,-0.18784,0.069123,-0.032197,0.034943,-0.0080873,0.13077,0.085908
0.051423,-0.12284,-0.0086976,-0.064546,0.052033,-0.076143,-0.023346,0.038911
0.057832,-0.10452,0.00045777,-0.074311,0.076448,-0.083772,-0.34043,-0.036469
0.063935,-0.086213,-0.0041199,-0.00045777,-0.02945,0.103,-0.19516,-0.04715
0.049897,-0.062104,-0.031891,-0.031586,-0.27237,0.42649,0.26627,-0.064851
-0.015717,-0.050202,-0.053864,-0.11734,-0.11093,0.18357,0.075837,-0.085908
-0.041657,-0.013886,-0.075227,-0.065461,0.12833,-0.38437,0.0080873,-0.079805
-0.046845,0.002594,-0.10239,-0.094759,0.095674,-0.19028,0.011444,-0.061494
-0.067903,0.0065614,-0.12497,-0.14694,0.15335,-0.07187,-0.0065614,-0.05539
-0.079194,0.005951,-0.11887,-0.16159,0.27543,-0.01297,0.07248,0.0010681
-0.074617,0.019684,-0.089265,-0.073091,-0.121,0.077363,0.076143,0.051118
-0.041047,-0.019379,-0.056916,-0.047761,-0.13474,0.040742,0.069429,0.067292
-0.055695,0.037079,-0.10025,-0.096895,-0.0050355,0.017853,0.063325,0.0795
-0.070039,0.063935,-0.096284,-0.095674,-0.016938,0.029145,0.066682,0.085603
-0.07187,0.016632,-0.068513,-0.070954,-0.020294,0.02884,0.055085,0.076143
-0.048371,0.0383,-0.050507,-0.061189,-0.0080873,0.0083925,0.025177,0.052033
-0.0071717,-0.059968,-0.012665,-0.04715,0.0077821,0.012665,0.032197,0.051728
-0.0050355,-0.12192,0.0053407,-0.045319,0.0016785,0.022431,-0.015717,-0.0090028
-0.027619,-0.10178,0.0086976,-0.033417,0.009308,0.020905,-0.11002,-0.033112
0.0056458,-0.10086,0.022431,-0.0206,0.038911,0.025483,0.012055,0.00076295
0.04654,-0.17014,-0.0080873,-0.053559,0.04593,0.022736,0.082856,-0.022431
0.022736,-0.1326,-0.034943,-0.053254,0.048066,0.017243,0.055085,-0.053559
0.009308,-0.078889,-0.083162,-0.047456,0.051728,-0.014191,0.05417,-0.025483
-0.029755,-0.017548,-0.10269,-0.09659,0.041657,-0.0080873,0.064546,-0.015717
-0.05539,-0.00045777,-0.061189,-0.094453,0.026093,0.028229,0.10788,0.0032044
-0.084077,0.029145,-0.12039,-0.075532,0.0016785,0.032807,0.081941,0.041657
-0.095064,0.084077,-0.12467,-0.12924,0.005951,-0.0068666,-0.26383,0.053254
-0.078279,0.09781,-0.16983,-0.15946,-0.016632,-0.0086976,-0.18265,0.07248
-0.051118,0.016632,-0.056916,-0.10636,-0.055695,0.016938,0.063935,0.10666
-0.058137,-0.082246,-0.076753,-0.081025,-0.056611,0.022431,0.025788,0.073396
-0.065461,-0.057832,-0.074311,-0.087434,-0.023346,0.00015259,0.041962,0.055085
-0.045014,0.024567,-0.054475,-0.092622,-0.028534,0.019074,0.10544,0.058442
-0.017243,-0.029755,-0.0056458,-0.046235,-0.019379,0.030671,0.039216,0.019379
0.00076295,-0.10361,0.019989,-0.0050355,0.0099184,0.022431,0.022126,-0.0019837
0.016022,-0.072786,-0.017548,-0.051118,0.034943,0.02945,0.02182,-0.0041199
0.031891,-0.11673,0.0086976,-0.052949,0.043488,0.016022,-0.0041199,-0.043488
0.053254,-0.11673,-0.0083925,-0.034943,0.03769,0.019989,-0.019379,-0.077974
0.058442,-0.095369,-0.017853,-0.085298,0.05417,0.010529,0.0013733,-0.057832
0.03769,-0.092622,-0.036774,-0.062715,0.050507,-0.0041199,-0.010224,-0.083772
0.0013733,-0.033417,-0.10269,-0.078889,0.05417,-0.011749,-0.02884,-0.13474
-0.0013733,-0.025483,-0.099641,-0.13291,0.045014,0.0068666,0.002594,-0.10788
-0.038605,0.031281,-0.13626,-0.10056,-0.010529,0.022736,0.037995,-0.066682
-0.04715,0.053254,-0.10727,-0.068513,-0.0041199,-0.0041199,0.023957,-0.018463
-0.06363,0.016327,-0.084993,-0.066377,-0.018158,0.0010681,-0.010224,-0.01297
-0.085908,0.011749,-0.077058,-0.052644,-0.038605,0.002594,-0.022431,0.012055
-0.11368,0.07126,-0.094148,-0.15305,-0.0053407,-0.016022,-0.027314,0.03006
-0.13321,0.043183,-0.073396,-0.121,-0.015412,-0.0028992,-0.01236,0.055085
-0.087129,-0.038605,-0.034638,-0.052644,-0.045319,-0.0035096,0.019379,0.088045
-0.059358,-0.049592,-0.056306,-0.095674,0.00076295,-0.0071717,0.047761,0.12467
-0.060883,-0.029755,-0.025483,-0.13107,-0.0071717,0.026398,0.075837,0.12161
-0.010529,-0.10391,0.015717,-0.04654,-0.037385,0.064546,0.10697,0.097505
0.049287,-0.16648,0.015412,-0.00076295,0.011139,0.054475,0.057832,0.13016
0.057527,-0.14145,-0.01236,-0.024872,0.070344,0.022736,0.015412,0.094148
0.032807,-0.10391,-0.026093,-0.073396,0.077974,-0.0019837,-0.048676,0.054475
0.031281,-0.085908,-0.022126,-0.0383,0.08072,0.00076295,-0.056001,0.0013733
0.048981,-0.056611,-0.045624,-0.088655,0.086213,-0.011139,-0.062104,-0.027619
0.048981,-0.056306,-0.064851,-0.061799,0.061494,0.0010681,-0.049592,-0.035554
-0.013275,0.0044251,-0.11124,-0.084993,0.073091,-0.00015259,0.0056458,-0.073396
-0.049897,0.060273,-0.103,-0.11765,0.041657,-0.00015259,0.099641,-0.10422
-0.079194,0.07126,-0.11032,-0.12161,-0.19699,0.061189,0.052033,-0.074617
-0.13169,0.086213,-0.10727,-0.09659,-0.22049,0.023346,0.0053407,-0.014496
-0.14664,0.065461,-0.096284,-0.11093,-0.0056458,-0.027314,-0.0050355,0.046845
-0.1268,0.077363,-0.13138,-0.11582,0.033417,-0.010834,0.019379,0.086213
-0.093233,0.013581,-0.08072,-0.086824,-0.010224,0.011444,0.033112,0.10239
-0.059663,-0.094453,-0.019074,-0.036164,-0.00015259,0.043183,0.049897,0.086519
-0.027619,-0.13596,-0.060578,-0.057221,0.023651,0.0383,0.060273,0.066072
0.0096132,-0.13199,0.0096132,-0.022431,0.02945,0.012055,0.02945,0.040436
0.026703,-0.16159,0.0383,-0.022736,0.065156,-0.019989,-0.037385,-0.015717
0.031891,-0.13138,-0.039216,-0.06363,0.073396,-0.053254,-0.11429,0.0086976
0.037079,-0.08957,-0.0016785,-0.048371,0.058137,-0.0071717,-0.10544,0.0016785
0.03006,-0.062104,-0.023651,-0.036469,0.051118,0.069734,0.052949,-0.0068666
0.042878,-0.027924,-0.018769,-0.031281,0.053254,0.029145,0.033112,-0.043793
0.037385,-0.042878,-0.041962,-0.056306,0.050507,0.00045777,-0.020294,-0.11002
-0.030976,0.016327,-0.10239,-0.13901,0.033722,0.009308,0.10605,-0.11398
-0.046845,0.009308,-0.086519,-0.093843,-0.0053407,0.0062562,0.13382,-0.064851
-0.054475,0.0038148,-0.11429,-0.087739,-0.022126,-0.00076295,-0.059968,-0.023346
-0.066682,0.04593,-0.11063,-0.11185,-0.014801,-0.0090028,-0.01236,0.053559
-0.099031,0.025483,-0.11765,-0.13474,-0.023041,-0.016327,0.017243,0.06302
-0.076143,-0.012055,-0.09659,-0.13962,-0.039826,-0.010224,-0.056611,0.099641
-0.08011,0.034028,-0.087129,-0.11917,-0.069734,0.025483,-0.08011,0.11093
-0.058137,0.0041199,-0.060883,-0.10575,-0.050507,0.031281,0.043488,0.094148
-0.0028992,-0.12741,0.0056458,-0.045014,-0.031586,0.030976,0.12619,0.074311
0.021515,-0.1503,-0.036774,-0.021515,0.0086976,0.0022889,0.088655,-0.015412
0.016022,-0.019379,-0.059968,-0.028534,0.052033,0.0071717,0.098116,-0.023346
0.041962,0.052338,-0.029755,-0.042878,0.052949,0.020294,0.025177,-0.02884
0.039826,-0.043488,0.029755,-0.017548,0.053254,0.016327,-0.054475,-0.06363
0.015106,-0.042267,-0.036774,-0.042878,0.069734,-0.0016785,-0.085298,-0.103
-0.017548,-0.057527,-0.059052,-0.10452,0.072175,-0.02121,-0.081331,-0.08896
0.00076295,-0.20798,0.068818,-0.10117,0.038911,-0.018769,-0.02121,-0.034333
-0.024567,-0.20188,-0.040436,-0.058747,0.010529,0.0019837,-0.03769,-0.027008
-0.044709,-0.088655,-0.0972,-0.065156,0.025483,-0.036469,-0.056001,-0.033417
-0.069123,0.036164,-0.085298,-0.074922,0.017853,0.0053407,0.038911,-0.024262
-0.074617,0.058442,-0.13748,-0.076448,-0.015412,0.0795,0.1857,0.0383
-0.081025,0.053864,-0.14237,-0.10239,-0.0206,0.058747,0.24796,0.083467
-0.1033,0.097505,-0.14267,-0.12924,-0.009308,0.016022,0.08072,0.13504
-0.085908,0.045319,-0.055085,-0.10056,-0.041352,-0.0019837,-0.054475,0.20371
-0.056916,0.0077821,-0.028229,-0.12741,-0.02884,-0.064546,-0.29526,0.19181
-0.030976,-0.041352,-0.060578,-0.059358,-0.010224,-0.043183,-0.29587,0.13474
-0.0041199,-0.045319,-0.070039,-0.12039,-0.019074,0.019989,0.16342,0.083772
-0.0056458,-0.035859,-0.018158,-0.095369,0.0038148,0.038605,0.21103,0.033722
0.0080873,-0.056611,-0.0044251,-0.032807,0.0016785,0.07248,0.15946,-0.025788
0.009308,-0.042267,-0.01236,-0.048981,0.025177,0.075227,0.24094,-0.11704
-0.0096132,-0.062715,-0.0077821,-0.013275,0.028229,0.066682,0.17227,-0.11948
-0.016938,-0.084077,0.013886,-0.045319,0.041657,0.032502,-0.060883,-0.103
-0.0032044,-0.076753,-0.018158,-0.094759,0.052033,-0.0077821,-0.21134,-0.11582
0.0050355,-0.10452,-0.015412,-0.035248,0.020905,-0.0071717,-0.29587,-0.14786
0.0099184,-0.15183,-0.052338,0.002594,0.017548,-0.0019837,-0.40635,-0.13352
0.035554,-0.10391,-0.14145,-0.040436,0.031891,-0.024872,0.021515,-0.048676
0.011749,0.034638,-0.1384,-0.094759,0.074006,-0.034333,0.07126,-0.013581
-0.044709,0.080415,-0.10697,-0.12741,0.042267,0.0077821,0.049592,-0.01236
-0.067292,0.011444,-0.075837,-0.12253,0.0047303,-0.019074,0.05417,0.015412
-0.069734,0.013275,-0.11215,-0.11398,-0.025483,0.0013733,0.03006,0.086519
-0.099641,0.078279,-0.11734,-0.13718,-0.081941,0.017853,0.0068666,0.10849
-0.11429,0.057221,-0.10147,-0.12161,-0.1442,0.0090028,0.063935,0.11765
-0.078889,0.030671,-0.082246,-0.10513,-0.072175,0.0071717,0.15335,0.15885
-0.066072,-0.024262,-0.037079,-0.084688,0.02121,0.025177,0.14603,0.13718
-0.0074769,-0.10422,0.010224,-0.0053407,0.03769,0.042267,0.11307,0.13107
0.026703,-0.12802,0.0044251,-0.0096132,0.068513,-0.039826,0.015106,0.061494
0.044404,-0.13687,0.014801,-0.091402,0.10025,-0.086519,-0.10452,-0.049592
0.065766,-0.16373,0.025788,-0.0074769,0.084688,-0.067292,-0.0071717,-0.049592
0.041047,-0.14664,0.014191,0.0032044,-0.013275,0.054475,-0.031586,-0.035859
0.0010681,-0.067903,-0.039216,-0.074617,-0.085603,0.20005,0.024262,-0.024567
-0.018463,-0.044099,-0.063935,-0.16068,0.010529,0.067597,0.038911,-0.051728
-0.018463,-0.02884,-0.065156,-0.16373,0.073396,-0.02121,0.0019837,-0.045624
-0.0090028,0.052338,-0.10483,-0.018769,0.04593,-0.0019837,0.017548,-0.0206
-0.050813,0.052338,-0.15518,-0.05539,0.03006,-0.0028992,0.019074,-0.019684
-0.068208,-0.032807,-0.094148,-0.098421,0.0099184,-0.009308,0.0383,-0.018463
-0.063325,0.0041199,-0.084382,-0.068513,-0.022126,-0.019379,0.016022,0.0047303
-0.042573,0.009308,-0.11093,-0.094453,-0.024567,-0.013581,0.026703,0.033722
-0.067903,0.072175,-0.14664,-0.15061,-0.014191,-0.014801,0.046235,0.04715
-0.084077,0.13321,-0.11948,-0.11093,-0.022736,-0.0074769,0.078584,0.059358
-0.087129,0.02121,0.0077821,-0.069123,-0.02945,0.005951,-0.079194,0.074006
-0.045624,-0.074922,0.00076295,-0.061799,0.0080873,-0.016022,-0.26047,0.048371
-0.019379,-0.11337,0.0047303,-0.046235,0.015412,0.0038148,0.0032044,0.035859
0.0096132,-0.12802,0.026703,-0.049592,0.009308,0.058747,0.15824,0.016938
0.040131,-0.22538,0.062715,0.0044251,0.0096132,0.048981,0.074006,-0.029145
0.033112,-0.15885,0.00076295,-0.018463,0.035554,0.049287,0.15549,-0.061189
-0.01297,-0.061799,-0.0795,-0.048676,0.085603,0.047456,0.27665,-0.029145
-0.01297,-0.014496,-0.051728,-0.11643,0.09781,0.040131,0.19333,-0.02884
-0.015412,-0.061494,0.0065614,-0.011139,0.087434,0.005951,0.031586,-0.024872
-0.032807,-0.061799,-0.10086,-0.048371,-0.00015259,-0.0080873,-0.18784,-0.031891
-0.050507,0.0083925,-0.14237,-0.15366,0.0032044,-0.013581,-0.33951,-0.048371
-0.091402,0.11215,-0.16068,-0.16861,0.060273,-0.0022889,-0.36057,0.026093
-0.08896,0.058137,-0.11887,-0.12192,-0.0096132,0.0062562,-0.17258,0.062104
-0.078279,-0.027314,-0.086519,-0.11307,0.11276,-0.0077821,0.048066,0.099031
-0.064546,-0.071565,-0.060578,-0.06424,-0.41062,0.093843,0.13107,0.11856
-0.051423,0.028534,-0.14054,-0.081331,-0.22477,-0.07187,0.083467,0.089876
-0.015412,0.069123,-0.034028,-0.086824,0.1912,-0.070649,0.032807,0.045014
-0.011444,0.0019837,0.013886,-0.032197,-0.050813,0.019989,-0.0044251,0.027008
-0.0010681,0.014191,-0.036164,-0.042878,0.073091,0.021515,0.074311,0.025177
0.037385,-0.042573,-0.019074,-0.056611,0.04593,0.028534,0.020294,-0.0090028
0.06302,-0.13687,0.05417,-0.065156,0.038911,0.016022,-0.01297,-0.077974
0.039521,-0.22293,-0.012665,-0.011139,0.059968,0.022431,0.062409,-0.12528
-0.010224,-0.15152,-0.044404,-0.073396,0.067292,0.026093,0.061799,-0.075227
0.020905,-0.0065614,-0.056001,-0.082246,0.042878,0.044404,0.072175,-0.033112
0.056306,-0.050813,-0.040131,-0.057527,0.0074769,0.058747,0.049287,-0.029755
-0.0056458,-0.07248,-0.032807,-0.06363,0.041657,-0.019684,-0.065766,-0.077363
-0.041657,-0.052338,-0.064546,-0.066987,0.043488,-0.057221,-0.095674,-0.051423
-0.10513,0.027314,-0.11734,-0.11368,0.010834,-0.015412,-0.0086976,0.023041
-0.11215,0.0083925,-0.10269,-0.12467,-0.012055,0.00015259,0.053254,0.07248
-0.1503,0.064546,-0.13046,-0.099947,-0.034943,0.011444,0.045014,0.10147
-0.14237,0.09781,-0.13107,-0.094759,-0.044709,0.026093,0.061494,0.12589
-0.11521,0.070344,-0.099336,-0.081636,-0.051118,0.037995,0.095979,0.14817
-0.065766,0.03006,-0.084077,-0.1091,-0.0050355,-0.012055,0.066377,0.12222
-0.024872,-0.0206,-0.065156,-0.07248,0.005951,-0.033722,0.06302,0.12589
0.017853,-0.048371,-0.048981,-0.065461,0.0090028,0.030976,0.082246,0.10575
0.016022,-0.080415,0.017243,-0.087739,0.00076295,0.16709,0.06424,0.080415
0.036164,-0.103,0.010834,-0.022736,-0.093233,0.30045,-0.061494,0.041962
0.048981,-0.11276,-0.0068666,-0.0065614,0.091707,-0.26139,-0.077058,-0.025177
0.055085,-0.13596,-0.0041199,-0.024567,0.16007,-0.27024,-0.011444,-0.073701
0.024872,-0.10941,-0.026398,-0.10513,0.051118,0.070649,-0.0050355,-0.13046
0.015412,-0.14939,-0.01297,-0.077363,0.023041,0.0068666,-0.0206,-0.1265
0.014801,-0.1326,-0.049897,-0.052338,0.0206,0.010224,-0.066072,-0.0972
-0.038605,-0.027619,-0.078889,-0.082856,0.034943,-0.031281,-0.12253,-0.11551
-0.050507,0.023651,-0.084993,-0.070954,0.0074769,0.0038148,-0.068208,-0.095979
-0.060578,0.051118,-0.13626,-0.0972,-0.002594,0.0383,0.027008,-0.027314
-0.061799,0.047761,-0.13352,-0.1088,-0.013275,0.026398,0.0080873,-0.014496
-0.070649,0.070344,-0.08957,-0.058137,-0.024262,0.0068666,-0.038605,-0.013275
-0.087129,0.063325,-0.098421,-0.12497,-0.013275,-0.0090028,-0.06302,0.020905
-0.1207,0.09659,-0.14481,-0.15793,-0.038911,0.0077821,0.028229,0.09781
-0.091707,0.048066,-0.065766,-0.12955,-0.065156,0.046235,0.20981,0.10361
-0.044709,-0.043793,-0.0047303,-0.035554,-0.024567,0.027924,0.23697,0.099947
0.0068666,-0.10391,0.0013733,-0.040436,0.022736,0.026093,-0.020294,0.14298
0.014191,-0.08957,-0.043793,-0.08835,0.035248,0.042878,-0.054475,0.084382
0.010529,-0.083772,-0.025483,-0.064546,0.044404,0.028229,0.042878,0.048371
0.02884,-0.10971,0.026398,-0.02121,0.03006,0.017853,0.061494,0.036164
0.029755,-0.12345,0.0019837,-0.016632,0.040131,-0.017548,-0.08072,-0.038911
-0.0056458,-0.13291,-0.0035096,-0.065156,0.063325,-0.016022,-0.0022889,-0.056916
0.016938,-0.14023,-0.022431,-0.050202,0.026093,0.044099,0.11429,-0.018769
0.0077821,-0.074617,-0.026703,-0.036469,0.023041,0.059052,0.11978,-0.025177
-0.024872,-0.044099,-0.035859,-0.066987,0.020905,0.059052,0.19699,-0.049592
-0.01297,-0.043793,-0.15763,-0.097505,0.0080873,0.018769,0.087434,-0.041962
-0.048676,0.051423,-0.1384,-0.088655,0.0056458,-0.011139,-0.13352,-0.033722
-0.063325,0.062104,-0.13962,-0.11185,0.019684,-0.095369,-0.3743,-0.014801
-0.077363,0.080415,-0.086213,-0.11704,0.035248,-0.11612,-0.56046,0.01297
-0.070649,0.077668,-0.11337,-0.13993,-0.016938,0.049592,-0.024262,0.055085
-0.061799,0.047761,-0.099336,-0.11704,-0.033722,0.04715,0.26719,0.059358
-0.057221,0.0038148,-0.035859,-0.10788,-0.024262,-0.05417,0.023957,0.065156
-0.027314,-0.020905,-0.052949,-0.082246,-0.10178,-0.030365,-0.0035096,0.068208
0.0035096,-0.086213,-0.048371,-0.025483,-0.22599,0.085908,0.057527,0.0071717
0.039826,-0.12253,0.0044251,0.01297,0.0035096,0.065461,0.11704,-0.02884
0.02884,-0.14603,0.0077821,-0.10361,0.1088,0.0068666,0.075837,-0.019684
0.051118,-0.17441,0.002594,-0.044709,0.068208,0.0050355,0.062104,-0.0022889
0.050507,-0.17655,0.034943,-0.0096132,0.060578,0.013275,0.037995,-0.02121
0.026093,-0.12161,-0.0077821,-0.023041,0.085298,-0.013886,-0.0056458,-0.050507
-0.0071717,-0.048371,-0.082551,-0.078889,0.09659,-0.038911,-0.033112,-0.055695
-0.053559,0.016327,-0.068513,-0.11154,0.036774,0.016022,0.026703,-0.029755
-0.076143,0.027314,-0.06302,-0.0972,-0.012665,0.048981,0.077363,-0.0053407
-0.085908,0.080415,-0.12955,-0.10483,0.015106,0.025483,0.082246,0.019074
-0.093538,0.044099,-0.11368,-0.09781,0.025483,0.011139,0.037995,0.023346
-0.090181,0.041962,-0.08896,-0.11032,-0.021515,0.010529,0.028229,0.016632
-0.063325,-0.01236,-0.098421,-0.083772,-0.039521,0.0053407,0.068513,0.066682
-0.033722,-0.01236,-0.1033,-0.06302,-0.028534,-0.0019837,0.059052,0.083772
-0.046845,0.062104,-0.086519,-0.11093,0.0056458,-0.025177,-0.18387,0.056611
-0.053559,0.094453,-0.067903,-0.13596,-0.021515,0.0032044,-0.15763,0.06424
-0.029145,-0.027314,-0.0383,-0.034333,-0.077058,0.050202,0.20951,0.08011
-0.017243,-0.078279,-0.016632,-0.07126,0.0028992,0.019074,0.22171,0.048066
0.012665,-0.12039,0.0071717,-0.051423,0.076448,-0.029145,-0.06302,-0.010529
0.018769,-0.15152,0.012665,-0.043183,0.06302,-0.040436,-0.61631,-0.035554
0.04654,-0.14939,-0.0099184,-0.055085,0.065156,0.033112,-0.10208,-0.043793
0.054475,-0.086824,0.0086976,-0.030365,0.043793,0.032807,0.19852,-0.068818
0.0053407,-0.026093,-0.017853,-0.0071717,-0.00015259,-0.026093,0.0019837,-0.11185
-0.051118,-0.010224,-0.083162,-0.070649,0.0041199,0.0028992,0.10666,-0.041962
-0.069123,0.016632,-0.10147,-0.090791,0.057527,0.022126,0.0080873,0.028229
-0.062104,0.045624,-0.11368,-0.11643,0.019989,0.025483,0.047761,0.052338
-0.037079,-0.11887,-0.025483,-0.06424,-0.031281,0.060273,0.15518,0.066072
-0.057832,-0.1619,-0.1088,-0.18753,-0.055695,0.070954,0.11063,0.037995
-0.067903,-0.010224,-0.13779,-0.13443,-0.076753,0.028534,0.039521,0.013581
-0.070039,0.11398,-0.14572,-0.090791,-0.051728,-0.027619,-0.026703,0.05539
-0.053559,0.075837,-0.085298,-0.072786,-0.0013733,-0.03769,-0.06363,0.067292
-0.045014,0.053559,-0.070649,-0.082246,0.017853,-0.029145,-0.04654,0.065156
-0.049897,0.014191,-0.047761,-0.061494,0.0096132,-0.0013733,0.053559,0.085298
-0.038605,-0.084993,0.021515,0.0019837,0.009308,0.0090028,0.059052,0.073701
-0.045014,-0.09659,-0.010529,-0.051118,0.035554,0.027008,0.026703,0.030976
-0.012055,-0.11612,0.00045777,-0.066987,0.049592,0.025483,0.035248,0.0010681
0.017243,-0.13291,-0.016327,-0.095674,0.070039,0.043183,0.064546,-0.023346
0.036774,-0.11826,-0.018769,-0.06302,0.068208,0.066377,0.077974,-0.057527
0.028229,-0.12436,-0.032807,-0.035248,0.076753,0.040436,-0.0062562,-0.10086
0.0035096,-0.081636,-0.030671,-0.035554,0.095674,-0.11215,-0.06363,-0.10391
0.019684,-0.066987,-0.027008,-0.023041,-0.13474,-0.048371,0.00076295,-0.056611
0.019074,-0.018158,-0.068208,-0.083772,-0.13413,-0.038911,0.063935,-0.049897
-0.028534,0.011444,-0.099641,-0.1146,0.070649,-0.0795,-0.10361,-0.059968
-0.054475,0.053864,-0.14298,-0.10147,-0.059358,0.1503,-0.28061,-0.0019837
-0.085908,0.070039,-0.10666,-0.090486,-0.055695,0.10178,-0.029755,0.047761
-0.10544,0.078584,-0.1268,-0.12039,0.043183,-0.026093,0.11398,0.074311
-0.087434,0.081636,-0.14908,-0.12528,0.023041,-0.0090028,0.092317,0.078584
-0.060883,0.031586,-0.11551,-0.12284,-0.016632,0.02884,0.14847,0.070344
-0.042573,-0.023346,-0.036774,-0.078584,-0.036774,0.039216,0.10452,0.037385
-0.027619,-0.069429,-0.020905,-0.085908,-0.042878,0.013275,0.070649,0.013275
-0.0062562,-0.12375,0.04593,-0.030365,-0.093538,0.035554,0.093538,0.027619
0.035554,-0.10269,0.017243,-0.020905,-0.026703,0.00015259,0.055695,0.015717
0.044404,-0.12985,0.040742,-0.052644,0.067597,-0.033112,-0.24582,0.012665
0.094453,-0.16587,-0.0065614,-0.027008,0.24063,-0.060273,-0.36149,0.009308
0.072786,-0.11887,-0.029145,-0.033112,0.34012,-0.031586,-0.013275,0.019684
0.043488,-0.11612,-0.011444,-0.030671,-0.050507,0.0795,0.10819,0.0080873
-0.00015259,-0.044709,-0.07187,-0.074311,-0.021515,0.01297,0.016632,-0.035554
-0.062104,-0.0074769,-0.099031,-0.095369,0.044099,0.011139,-0.014191,-0.12619
-0.098421,0.015106,-0.11307,-0.084382,-0.016327,0.023346,-0.055695,-0.14847
-0.10178,0.045319,-0.11734,-0.095064,-0.019684,-0.0050355,-0.0056458,-0.091096
-0.12802,0.07187,-0.12833,-0.10178,-0.029755,-0.0086976,0.10025,-0.014801
-0.17441,0.13809,-0.1265,-0.10178,-0.057221,0.0080873,0.13169,0.03769
-0.18051,0.13779,-0.10605,-0.21012,-0.056001,0.024262,0.19699,0.092012
-0.16312,0.071565,-0.076448,-0.17105,-0.055085,0.035248,0.13901,0.18265
-0.13016,0.002594,-0.031891,-0.026398,-0.027314,-0.0019837,0.03006,0.20768
-0.057832,0.021515,-0.063935,-0.03769,0.010834,-0.037995,-0.0065614,0.16556
0.00045777,-0.084077,-0.060578,-0.14939,0.0068666,0.00015259,-0.079805,0.11978
0.069429,-0.21195,0.033722,-0.0065614,-0.020905,0.027924,-0.1268,0.10208
0.083772,-0.21256,0.0074769,0.0074769,-0.0035096,0.054475,0.031281,0.057221
0.061799,-0.14206,-0.026703,-0.04654,0.064546,0.021515,0.047456,-0.01297
0.055695,-0.13535,0.022736,-0.050507,0.039826,0.03006,0.056001,-0.026398
0.060273,-0.10239,-0.061189,-0.034333,0.084077,0.043183,0.048981,-0.052033
0.07187,-0.058137,-0.032197,-0.027008,0.15824,0.00076295,-0.02121,-0.10788
0.037385,-0.055695,-0.017548,-0.051118,0.15335,-0.059968,-0.087434,-0.14481
0.0041199,-0.027619,-0.052338,-0.072786,-0.10147,-0.044099,-0.12375,-0.14603
-0.026703,0.022431,-0.16556,-0.11032,-0.34867,0.072786,-0.035554,-0.082246
-0.040436,0.035859,-0.10941,-0.16892,0.16281,-0.0016785,-0.0068666,-0.045014
-0.048676,0.021515,-0.12284,-0.10513,-0.00076295,-0.02884,0.0056458,-0.034943
-0.067597,0.052644,-0.11215,-0.051728,-0.00015259,0.021515,0.10788,-0.0022889
-0.065156,0.011444,-0.012665,-0.052338,0.021515,0.03006,0.093843,0.043793
-0.08072,0.065766,-0.092622,-0.11582,-0.014191,0.020294,0.051728,0.040436
-0.08896,0.092622,-0.12161,-0.19577,-0.015106,-0.033112,-0.025788,0.039521
-0.039826,-0.046235,0.0080873,-0.05539,-0.056611,-0.088045,-0.031281,0.11246
-0.024262,-0.11032,-0.023957,-0.041352,0.00045777,-0.077974,0.1445,0.091707
0.0065614,-0.10941,-0.026093,-0.056611,0.049897,0.048981,0.082551,0.052338
0.0016785,-0.1326,0.015412,-0.040436,-0.033722,0.27298,-0.087434,0.025483
-0.0062562,-0.097505,-0.0019837,-0.049287,-0.087129,0.28916,-0.15061,-0.038911
0.011139,-0.11093,0.0071717,-0.010529,0.11643,-0.32151,-0.077668,-0.014191
0.033112,-0.16281,-0.017853,-0.04715,0.12039,-0.14481,0.22324,-0.012665
0.028229,-0.15702,-0.048066,-0.081025,0.041962,0.080415,0.20096,-0.031586
-0.0056458,-0.092927,-0.078279,-0.068513,0.041047,0.009308,0.085603,-0.047761
-0.032502,0.0086976,-0.073396,-0.10056,0.037995,-0.02945,-0.078279,-0.023346
-0.077363,0.083162,-0.13046,-0.1149,0.026093,-0.11185,-0.52934,-0.059052
-0.09781,0.095674,-0.13626,-0.10575,-0.018158,0.0010681,-0.33646,-0.04654
-0.093233,0.059663,-0.1326,-0.11154,-0.033112,0.087129,0.37644,0.088655
-0.10727,0.094148,-0.11643,-0.12589,-0.030365,0.038911,0.26017,0.12406
-0.099336,0.068208,-0.082551,-0.11521,-0.051118,0.046845,0.13809,0.12039
-0.063325,0.032197,-0.098726,-0.086519,-0.059052,0.044404,0.16495,0.10025
-0.052644,0.017243,-0.072786,-0.06302,-0.050507,0.0032044,0.025788,0.033722
-0.044404,-0.026093,-0.013886,-0.053254,-0.0010681,-0.013275,-0.052949,0.013886
-0.037079,-0.083772,0.014801,-0.028534,0.028229,0.016327,0.19791,0.034028
0.018769,-0.12558,0.0035096,-0.012055,0.03769,-0.02884,-0.32303,-0.031586
0.056001,-0.13565,0.018158,-0.054475,0.037995,-0.015717,-0.4686,-0.079194
0.059663,-0.14206,0.030365,-0.069123,0.047456,0.030976,-0.048676,-0.070649
0.076753,-0.08835,-0.041047,-0.077363,0.043488,0.063325,0.17746,-0.056001
0.060273,-0.084077,-0.031891,-0.036774,0.032197,0.034638,0.11917,-0.059663
0.03769,-0.12436,-0.046845,-0.042573,0.027008,0.02884,0.07126,-0.033112
0.011749,-0.08957,-0.087129,-0.069429,0.046845,0.0047303,0.035859,-0.024262
-0.0010681,-0.10971,-0.030976,-0.10269,0.041962,-0.018158,-0.029755,-0.0090028
-0.042878,-0.08072,-0.10971,-0.13901,0.036164,-0.017853,-0.024262,-0.0035096
-0.10636,0.085908,-0.15915,-0.12528,-0.010224,-0.0099184,0.057832,0.061494
-0.13382,0.14817,-0.12131,-0.11978,-0.051423,0.0099184,0.12314,0.10178
-0.13474,0.10758,-0.08835,-0.10575,-0.047761,0.0032044,0.085908,0.11765
-0.11002,0.072175,-0.099641,-0.061494,-0.036469,0.020905,0.092317,0.12192
-0.12863,0.035554,-0.062104,-0.088655,-0.025177,0.016938,0.04654,0.11032
-0.077363,-0.0099184,-0.098116,-0.1091,-0.023041,0.018769,-0.035859,0.086519
-0.027008,-0.06363,-0.019684,-0.064851,-0.01297,0.041047,0.058137,0.05417
0.0016785,-0.09659,0.011444,-0.025483,0.029145,0.0053407,0.093843,-0.013581
0.03006,-0.1088,-0.0053407,-0.035554,0.087434,-0.0050355,0.073396,-0.022126
0.052338,-0.093538,0.0032044,-0.07126,0.12833,-0.016022,-0.19699,-0.033722
0.053559,-0.031586,0.0038148,-0.02884,0.085908,0.00076295,-0.12375,-0.049287
0.062409,-0.035554,-0.033112,-0.056916,0.032807,0.046845,0.027619,-0.075532
0.068513,-0.13779,-0.024567,-0.04654,-0.047761,0.034943,-0.034943,-0.095674
0.0041199,-0.070649,-0.048066,-0.11795,-0.20584,0.027008,0.0019837,-0.054475
-0.018463,-0.032197,-0.081331,-0.093233,-0.10849,-0.0035096,0.031891,-0.035248
-0.038605,-0.030976,-0.12467,-0.099031,0.072175,0.0038148,0.070039,0.0074769
-0.07187,-0.022126,-0.14694,-0.094453,0.085298,0.0053407,0.044404,-0.0053407
-0.045624,-0.056916,-0.05478,0.016022,0.053559,-0.017853,-0.0010681,-0.0035096
-0.045014,-0.030976,-0.064851,-0.12039,0.064546,-0.047456,-0.011444,0.028229
-0.068208,0.024262,-0.093538,-0.15183,0.04593,-0.037385,-0.013581,0.045014
-0.08957,0.12558,-0.13565,-0.062715,-0.051423,0.0068666,0.0028992,0.038911
-0.095979,0.074311,-0.070039,-0.086519,-0.07126,0.0086976,0.0074769,0.015412
-0.052949,-0.0044251,-0.025788,-0.10544,-0.12039,0.010224,0.0080873,0.043793
-0.040742,-0.11093,0.0038148,-0.062409,-0.042573,0.01236,-0.0035096,-0.014191
-0.016938,-0.16251,0.0062562,-0.058747,0.039216,0.014191,-0.013275,-0.034638
-0.0013733,-0.15457,0.009308,-0.050202,0.023041,0.031281,0.019684,0.0074769
0.0056458,-0.12558,0.012055,-0.033722,0.041962,0.014191,0.019989,0.0074769
0.039521,-0.11276,-0.02884,-0.025483,0.059358,0.020905,0.010529,-0.0096132
0.042878,-0.044099,-0.031891,-0.05417,0.083772,0.0090028,0.036774,-0.023041
0.07187,-0.045624,-0.016938,-0.038911,0.075837,0.0041199,0.059358,-0.073701
0.032807,-0.021515,-0.11643,-0.050507,0.069429,0.023041,0.017243,-0.10239
-0.022126,0.063325,-0.11307,-0.103,0.053864,0.0099184,-0.016327,-0.073091
-0.055085,0.10178,-0.12619,-0.099947,0.022736,0.03006,-0.0044251,-0.0096132
-0.086213,0.019989,-0.10422,-0.11124,0.031281,-0.011749,0.0019837,0.039521
-0.098421,0.053864,-0.12528,-0.1146,0.034333,-0.090486,-0.052644,0.082856
-0.10117,0.052644,-0.10758,-0.097505,-0.0071717,-0.11765,-0.044404,0.11673
-0.11948,-0.0206,-0.07248,-0.1268,-0.01236,-0.083772,0.0019837,0.11276
-0.10544,-0.090791,-0.026093,-0.13046,-0.1564,0.15915,0.088045,0.13382
-0.081025,-0.059358,-0.060883,-0.094759,-0.21805,0.22019,0.1503,0.16495
-0.079805,-0.036469,-0.066987,-0.072175,-0.023651,0.051728,0.12406,0.11154
-0.066682,-0.009308,-0.043183,-0.07248,0.037079,0.019074,0.12863,0.091402
-0.041962,-0.022431,-0.030365,-0.036774,-0.023651,0.067597,0.18479,0.072175
0.010529,-0.09781,0.0038148,-0.073091,-0.082246,0.060578,-0.18112,-0.0013733
0.08011,-0.19486,0.052033,-0.02945,0.0090028,-0.013275,-0.3801,-0.073396
0.061189,-0.14481,-0.019684,-0.052338,0.10361,-0.1326,-0.068818,-0.089876
0.04654,-0.081331,-0.025483,-0.081025,0.24399,-0.11643,0.039521,-0.051423
0.049287,-0.048981,-0.035554,-0.057527,0.33799,0.0041199,0.078279,-0.070954
0.018769,-0.009308,-0.08957,-0.044404,-0.049592,0.08957,0.072175,-0.076143
-0.060883,0.048371,-0.099031,-0.077363,-0.057221,0.023041,-0.0096132,-0.068818
-0.10239,0.092317,-0.12436,-0.10788,-0.0047303,0.0053407,-0.077363,-0.055695
-0.10208,0.0086976,-0.10697,-0.079805,-0.05478,0.034333,-0.0022889,0.0077821
-0.08011,-0.02945,-0.11978,-0.0972,-0.033112,0.018769,0.062409,0.005951
-0.053254,-0.009308,-0.12253,-0.12528,-0.033417,-0.0016785,0.057527,0.039216
-0.030976,-0.017853,-0.093233,-0.1149,-0.044709,-0.0013733,0.032807,0.052033
-0.04715,-0.061494,-0.019074,-0.038911,-0.04654,-0.03006,-0.048371,0.0047303
-0.0050355,-0.11398,-0.030976,-0.070954,-0.036774,-0.010834,-0.059358,0.062104
-0.015106,0.0019837,-0.030976,-0.099641,-0.010224,0.031586,0.08835,0.086519
-0.0013733,-0.036164,-0.023957,-0.050507,-0.0010681,-0.0013733,0.043488,0.031891
0.025788,-0.081331,-0.018158,-0.039216,0.024262,-0.022126,0.027008,0.0041199
0.039216,-0.10605,0.0056458,-0.0383,0.03769,0.054475,0.18265,0.01297
0.034333,-0.084382,0.0041199,-0.053559,0.048371,0.07248,0.14633,-0.0096132
0.031891,-0.083772,-0.0206,-0.034638,0.046845,0.025483,0.033417,-0.025788
-0.013581,-0.066377,-0.017548,-0.049592,0.055695,-0.033722,-0.033112,-0.094453
-0.02884,-0.056916,-0.025483,-0.065156,0.066072,-0.059663,-0.10391,-0.10422
-0.053559,-0.029755,-0.076143,-0.1207,0.042267,-0.011749,0.0019837,-0.019684
-0.060578,0.027314,-0.11612,-0.10086,0.0038148,0.020294,0.040436,0.012055
-0.059663,0.039826,-0.10819,-0.062715,-0.016327,0.022736,0.016632,0.024262
-0.073701,0.05417,-0.12161,-0.12863,0.002594,-0.01297,-0.089265,0.034028
-0.08957,0.023957,-0.11368,-0.11917,-0.026398,-0.033722,-0.15854,0.052949
-0.0795,0.040742,-0.095369,-0.10117,-0.048981,-0.0068666,-0.12253,0.078279
-0.070039,0.041352,-0.096284,-0.075837,-0.035248,0.050202,-0.05478,0.11673
-0.049897,0.0016785,-0.094148,-0.06302,-0.024567,0.050202,0.12833,0.11276
-0.038605,-0.067597,-0.031891,-0.09781,-0.0080873,0.02884,0.28428,0.081636
-0.041962,-0.084077,-0.0086976,-0.10941,0.011139,0.026398,0.16068,0.063935
-0.01297,-0.077974,-0.010224,-0.032502,-0.0035096,0.019989,0.02884,0.05417
0.005951,-0.10025,-0.013581,-0.040742,0.016938,-0.01297,-0.098421,0.023957
0.0074769,-0.099947,0.02182,-0.0383,0.060273,-0.057832,-0.36362,-0.042573
0.02121,-0.11002,0.0035096,-0.040436,0.053864,0.020294,0.034333,-0.075227
0.023957,-0.082246,-0.07187,-0.073091,0.055695,0.034333,0.27787,-0.083772
0.056001,-0.11002,-0.045014,-0.053254,0.056306,0.041352,0.092012,-0.095979
0.047456,-0.086824,-0.041657,-0.048371,0.12833,0.036164,-0.081331,-0.11856
-0.016327,-0.01297,-0.056916,-0.070649,0.17746,-0.017548,-0.13382,-0.10422
-0.08896,0.0022889,-0.052338,-0.10788,0.14084,-0.027924,0.017853,-0.074006
-0.1326,0.013581,-0.11032,-0.10971,-0.14633,0.053254,0.12802,0.0071717
-0.11246,0.070344,-0.17533,-0.14389,-0.53025,0.1207,0.12802,0.070649
-0.10361,0.087739,-0.14267,-0.15671,-0.0041199,-0.013886,0.0383,0.079805
-0.092012,0.031281,-0.08072,-0.12589,0.014801,-0.088655,-0.24887,0.10239
-0.060883,0.0071717,-0.099031,-0.089876,0.011139,-0.017853,-0.17563,0.16678
0.0019837,0.024262,-0.074006,-0.033722,0.028229,0.036164,0.16281,0.17014
0.023346,-0.047761,-0.0080873,-0.026703,0.043488,0.018769,0.073396,0.073396
0.053864,-0.11948,-0.0022889,-0.04715,0.076753,0.0083925,0.077363,0.023041
0.044404,-0.11337,-0.018463,-0.06424,0.11612,-0.020905,0.044404,-0.021515
0.048371,-0.12894,0.010529,-0.024872,0.0383,0.0019837,-0.0041199,-0.069123
0.045014,-0.11154,0.026398,-0.0019837,-0.1677,0.060578,0.029755,-0.044709
0.030976,-0.10819,-0.0053407,-0.026398,-0.090791,-0.013886,-0.025483,-0.065156
0.04593,-0.10178,-0.042878,-0.035554,0.10575,-0.017243,0.0077821,-0.070649
0.023346,-0.082551,-0.056306,-0.048981,0.10605,0.017853,0.052033,-0.091402
-0.018769,-0.022736,-0.083467,-0.16953,0.068513,0.010224,0.048066,-0.11215
-0.040436,0.02121,-0.072786,-0.21744,0.037995,0.027314,0.079805,-0.08835
-0.029755,-0.024872,-0.059968,-0.077668,0.0206,0.012665,0.088045,-0.035554
-0.074922,-0.022126,-0.12253,-0.073091,0.041352,-0.07187,-0.26169,-0.010529
-0.091402,0.0074769,-0.17136,-0.093843,0.012055,-0.016938,-0.19425,0.017548
-0.1207,0.15763,-0.11917,-0.083772,-0.024262,0.11398,0.1387,0.096895
-0.14755,0.1323,-0.077058,-0.085603,-0.12741,0.31052,0.08011,0.092012
-0.12589,0.028534,-0.059052,-0.073396,-0.06302,0.011444,0.020905,0.1622
-0.091096,-0.019989,-0.062409,-0.072786,0.10147,-0.41459,0.06363,0.21592
-0.066072,-0.05539,-0.02884,-0.08957,0.022736,-0.013886,0.062104,0.18753
-0.030671,-0.12772,0.0080873,-0.051118,-0.022431,0.051423,0.041657,0.121
0.019074,-0.18845,0.015717,-0.04654,0.016938,0.019379,0.022736,0.011444
0.068208,-0.15335,0.0053407,-0.026398,0.038911,0.019989,0.0065614,-0.068818
0.063325,-0.081941,-0.010224,-0.02884,0.049287,0.015412,-0.00076295,-0.11795
0.030365,-0.048066,-0.024872,-0.033112,0.051118,0.022431,-0.030365,-0.16831
-0.0065614,-0.051423,-0.036469,-0.078889,0.045319,0.025177,-0.020294,-0.10391
-0.029145,-0.047456,-0.066072,-0.074922,0.031586,0.024262,0.027619,-0.039216
-0.053864,-0.028229,-0.08011,-0.10452,0.019379,0.028229,0.052949,-0.035248
-0.064851,0.0022889,-0.10422,-0.082856,-0.0010681,0.033417,0.04593,-0.033112
-0.070954,0.009308,-0.091402,-0.082551,-0.015717,0.034943,0.027619,0.028229
-0.091402,0.052644,-0.11521,-0.092622,-0.016632,0.059358,0.037079,0.086824
-0.073701,0.051118,-0.12772,-0.17563,0.02884,0.029145,0.036164,0.11063
-0.03769,0.022736,-0.074922,-0.11643,0.032197,-0.029755,0.0053407,0.086213
-0.012665,0.0013733,-0.074311,-0.041657,0.00076295,-0.078279,-0.0019837,0.070344
-0.0032044,0.011139,-0.078584,-0.073396,0.02884,-0.11246,-0.033417,0.034028
-0.024872,-0.0016785,-0.060578,-0.10086,-0.10483,0.070344,-0.058137,0.023346
-0.020294,-0.082856,-0.018158,-0.10117,-0.19699,0.14817,-0.042573,-0.010224
0.0032044,-0.083772,0.009308,-0.0383,-0.040742,0.023957,-0.0086976,-0.00045777
0.043183,-0.11154,0.0096132,-0.038911,0.065156,0.0013733,0.041352,0.041962
0.061799,-0.13474,-0.00015259,-0.0065614,0.059358,0.024872,0.0383,0.0065614
0.077668,-0.11276,-0.019074,-0.051423,0.08011,0.012055,0.020905,-0.041657
0.091707,-0.15549,-0.00015259,-0.029145,0.088045,-0.015106,-0.029145,-0.069734
0.061494,-0.11887,-0.040436,-0.046845,0.092317,-0.031281,-0.011444,-0.12314
-0.012665,-0.0035096,-0.08835,-0.091096,0.089876,-0.020294,-0.0053407,-0.12772
-0.057832,0.056611,-0.099641,-0.081636,-0.018463,0.019989,0.0383,-0.077974
-0.11063,0.019989,-0.11063,-0.11673,-0.10147,0.026703,0.044099,-0.0032044
-0.13016,0.01236,-0.10422,-0.13077,-0.073091,0.005951,-0.022126,0.049287
-0.12558,-0.005951,-0.1146,-0.13352,-0.040436,0.012665,-0.04715,0.067597
-0.12406,0.029755,-0.12131,-0.11795,0.16922,-0.031281,0.07248,0.07187
-0.12589,0.011749,-0.089265,-0.074922,0.20859,-0.04593,0.027924,0.103
-0.13657,0.067597,-0.090791,-0.093233,-0.1799,0.047456,-0.0013733,0.15335
-0.11551,0.090181,-0.050813,-0.074922,-0.086213,0.0383,0.039826,0.18021
-0.087739,0.038605,-0.031891,-0.045319,-0.024567,0.035248,0.051728,0.14817
-0.073701,-0.01236,-0.022431,-0.06363,-0.0035096,0.030976,0.098726,0.078584
-0.0090028,-0.086519,-0.016938,-0.048676,0.017243,0.043488,0.08072,0.046235
0.040131,-0.15488,0.0062562,-0.041352,0.010529,0.05539,0.036774,-0.016632
0.053254,-0.16495,0.0013733,-0.027008,0.010529,0.049592,-0.010224,-0.056001
0.070344,-0.20005,0.017243,-0.030976,0.047456,-0.081331,-0.035554,-0.053254
0.082551,-0.17685,0.002594,-0.030365,0.074617,-0.077974,-0.041047,-0.084993
0.03006,-0.060273,-0.057832,-0.098726,0.069123,0.030671,-0.059968,-0.12802
0.029145,-0.03006,-0.042573,-0.066987,0.028229,0.027008,-0.033722,-0.1146
0.055085,-0.0096132,-0.11643,-0.002594,0.010529,0.022736,0.0013733,-0.077668
-0.015717,0.12589,-0.15061,-0.12467,0.064546,-0.019684,-0.020905,-0.031891
-0.039216,0.10391,-0.14939,-0.17807,0.069123,-0.020294,0.010834,-0.0022889
-0.08835,0.039826,-0.12161,-0.095674,-0.029145,0.0086976,0.014191,0.032807
-0.069123,-0.015717,-0.12619,-0.066987,-0.010834,-0.019684,0.0010681,0.057221
-0.070649,0.035859,-0.096895,-0.1677,0.015717,-0.021515,0.0038148,0.057527
-0.081025,-0.0080873,-0.053254,-0.1619,-0.12833,0.03006,-0.00015259,0.051118
-0.040742,-0.12741,0.026398,-0.033112,-0.23941,0.052338,0.013886,0.072786
-0.029755,-0.13046,0.014191,-0.028229,0.017548,0.0065614,0.017853,0.056001
-0.029145,-0.062715,-0.035554,-0.053559,0.13443,-0.0038148,0.039216,0.053254
-0.0068666,-0.034638,-0.031586,-0.074311,0.078279,0.037385,0.06424,0.076143
0.009308,-0.066377,-0.0041199,-0.050813,0.035248,0.069734,0.060578,0.046235
0.018158,-0.093843,-0.0013733,-0.048981,0.05539,0.041047,0.052338,-0.00045777
-0.0071717,-0.099336,-0.023957,-0.050507,-0.11612,0.065461,0.076753,-0.059663
-0.022431,-0.11398,-0.014191,-0.067597,-0.14359,0.048676,0.19852,-0.070649
0.02182,-0.11246,-0.043183,-0.041047,0.049592,0.0071717,-0.077974,-0.04715
0.0050355,-0.026398,-0.0795,-0.075837,0.17044,-0.038911,-0.262,-0.069734
-0.02884,-0.0022889,-0.098421,-0.085603,0.18448,-0.024872,0.13321,-0.028229
-0.058747,-0.00045777,-0.10025,-0.065461,0.11398,0.021515,0.15457,-0.029145
-0.086824,0.065156,-0.13901,-0.11307,-0.18631,0.023346,0.0041199,-0.02945
-0.087434,0.063935,-0.12467,-0.11124,-0.29679,0.014496,-0.29435,0.02121
-0.10605,0.088655,-0.10452,-0.1088,0.16068,-0.077668,-0.18784,0.052338
-0.11704,0.06424,-0.1091,-0.13718,-0.012665,-0.066072,0.0010681,0.088045
-0.095674,0.018463,-0.068208,-0.11307,0.016022,-0.023041,0.035859,0.11063
-0.063325,-0.027619,-0.036469,-0.05417,-0.014191,0.026703,0.13596,0.14176
-0.0053407,-0.078279,0.040742,-0.036469,-0.022431,0.049287,0.06363,0.16861
0.014801,-0.10636,0.0016785,-0.053254,0.014801,0.04654,0.017243,0.064546
0.050202,-0.13657,0.0096132,-0.046235,0.022736,0.027924,0.062409,-0.049592
0.051423,-0.12345,-0.0080873,-0.00015259,0.046235,0.010529,0.03769,-0.12741
0.059358,-0.10971,-0.03769,-0.014496,0.079194,0.00045777,0.011139,-0.12589
0.090486,-0.1088,-0.092927,-0.043488,0.082246,0.032807,0.025788,-0.081025
0.060273,-0.044099,-0.04593,-0.070344,0.081941,0.035248,0.022736,-0.087739
0.04654,-0.060883,-0.042573,-0.12192,0.051423,0.0010681,-0.066682,-0.08072
0.0099184,-0.016632,-0.08072,-0.13748,0.023651,-0.016938,-0.059052,-0.078889
-0.018463,-0.0053407,-0.072786,-0.065156,-0.0032044,-0.051118,-0.072175,-0.033417
-0.069734,-0.034943,-0.1146,-0.092317,-0.0056458,-0.031891,0.0056458,0.041047
-0.10819,-0.0028992,-0.12375,-0.12528,0.0090028,0.0010681,0.070344,0.075227
-0.1384,0.099336,-0.11093,-0.1088,-0.032807,0.0028992,0.053864,0.14176
-0.13321,0.048371,-0.072786,-0.1091,-0.04593,0.015412,0.04654,0.19486
-0.12222,0.025788,-0.083467,-0.088655,-0.041047,0.06424,0.21164,0.20584
-0.12436,0.02945,-0.058442,-0.080415,-0.041962,0.060883,0.22812,0.14328
-0.091096,0.031281,-0.053864,-0.069734,-0.035859,0.042878,0.076448,0.069429
-0.047761,-0.058442,0.0019837,-0.052644,0.00076295,0.034333,-0.014191,0.034028
-0.0032044,-0.066987,-0.0096132,-0.019379,0.033417,-0.005951,-0.22812,-0.0013733
0.0013733,-0.030671,-0.015717,-0.1091,0.054475,0.0038148,-0.23911,-0.063935
0.010834,-0.12772,0.019989,-0.07126,0.050507,0.057527,0.15305,-0.067292
0.059052,-0.17258,0.026398,-0.019379,0.019074,0.038605,0.013581,-0.12039
0.058442,-0.18479,-0.015717,-0.079805,0.051423,-0.0077821,-0.11307,-0.15061
0.061189,-0.21653,-0.027619,-0.042267,0.027008,-0.0068666,-0.059968,-0.08011
0.07187,-0.21042,-0.069123,-0.045319,0.010834,-0.0013733,0.0050355,-0.076753
0.016938,0.017853,-0.11154,-0.07126,0.020905,-0.023651,0.041962,-0.062715
-0.04593,0.14817,-0.13107,-0.10178,0.031891,-0.022126,0.061494,0.023041
-0.06363,0.11002,-0.16953,-0.13565,-0.0013733,0.016632,0.099947,0.094759
-0.095369,0.091096,-0.13565,-0.13535,-0.016327,0.0083925,0.049897,0.090486
-0.091707,0.030671,-0.097505,-0.088655,-0.0090028,-0.02945,-0.0083925,0.08835
-0.073396,0.015412,-0.07187,-0.064546,-0.017243,-0.015412,0.0041199,0.093538
-0.081636,0.090181,-0.059052,-0.084993,-0.0068666,-0.0096132,0.067292,0.077974
-0.030365,0.033722,-0.026398,-0.053254,0.0056458,-0.020905,0.085603,0.033417
-0.0096132,-0.042878,-0.034638,-0.044099,-0.0010681,-0.0074769,0.061799,0.012665
0.0074769,-0.10788,-0.00076295,-0.074311,0.010834,0.00015259,0.056001,0.002594
0.030976,-0.16068,-0.025483,-0.071565,0.010529,-0.034333,-0.14939,-0.050507
0.02945,-0.14481,0.017243,-0.041657,0.018769,-0.020294,-0.42069,-0.066682
0.060273,-0.2327,0.02945,-0.016632,0.023041,0.064851,-0.014496,-0.058137
0.034028,-0.1735,0.011444,-0.044709,0.047456,0.040742,0.11795,-0.05478
-0.0096132,-0.056001,-0.059968,-0.065766,0.036164,0.025177,0.013581,-0.02884
-0.035554,0.02121,-0.096284,-0.10971,0.026703,0.034943,0.06424,0.0056458
-0.041047,-0.02884,-0.045014,-0.020905,0.0074769,0.034943,0.062104,0.017548
-0.069123,0.024567,-0.10697,-0.1091,0.02121,0.02945,0.043793,0.038911
-0.12375,0.13443,-0.14359,-0.24826,0.018158,0.028229,0.037079,0.058442
-0.12406,0.11856,-0.11521,-0.094759,-0.077058,0.04654,0.041047,0.08072
-0.11337,0.048066,-0.1146,-0.042573,-0.077058,0.017853,0.039826,0.077668
-0.070649,0.035859,-0.10239,-0.058747,0.011749,-0.020294,0.015717,0.05417
-0.061799,0.032502,-0.094453,-0.074311,0.036164,-0.0080873,0.02121,0.051118
-0.0080873,-0.05539,-0.030365,-0.14054,0.025483,-0.0090028,0.0041199,0.07248
0.022736,-0.078279,0.012055,-0.070344,0.014191,-0.0090028,0.025788,0.10422
-0.011139,-0.074311,-0.037995,-0.084382,0.047761,-0.0053407,0.016632,0.02945
-0.033112,-0.042573,-0.028229,-0.075837,-0.00076295,0.034943,0.031281,-0.01236
-0.022126,-0.066682,-0.01236,-0.041657,-0.084993,0.045624,0.039521,-0.044404
0.0038148,-0.11643,-0.037079,-0.041047,0.027924,0.020294,0.012055,-0.08072
0.024872,-0.17075,0.016022,-0.037079,0.080415,0.025483,0.010834,-0.076143
0.0074769,-0.15061,-0.011444,-0.026093,-0.059968,0.05478,-0.014191,-0.089265
0.024872,-0.078584,-0.061799,-0.084993,-0.095674,0.034333,-0.015106,-0.055085
0.040436,-0.046235,-0.051118,-0.070954,0.1323,-0.0062562,-0.013581,-0.047761
0.056611,-0.017548,-0.052033,0.012665,0.12772,-0.023041,-0.012665,-0.066682
0.015717,0.10788,-0.15274,-0.10147,0.08835,-0.031586,0.042878,-0.045014
-0.045624,0.10575,-0.1445,-0.16129,0.034028,-0.0090028,0.035248,0.035859
-0.075227,0.0013733,-0.035554,-0.10971,-0.073396,0.0047303,-0.01297,0.15702
-0.075837,0.0083925,-0.13291,-0.10971,-0.063935,-0.033112,-0.074922,0.15488
-0.098116,0.035248,-0.17411,-0.12436,-0.018463,-0.031586,-0.098116,0.015412
-0.10727,-0.052338,-0.050507,-0.12253,-0.027008,0.020294,0.034028,-0.064546
-0.074617,-0.15702,-0.052338,-0.055085,-0.032807,0.012055,0.074311,-0.038605
-0.11185,0.035859,-0.047761,-0.073396,-0.0028992,0.0041199,0.062409,0.032197
-0.070954,-0.032502,0.012665,-0.060578,0.055695,-0.017548,0.060578,0.078279
-0.020294,-0.094759,-0.019989,-0.036164,0.033112,-0.017243,0.056001,0.08011
0.016632,-0.08957,-0.0077821,-0.031281,0.049287,-0.025483,0.037995,0.083467
0.032197,-0.13138,0.030365,-0.042573,0.063325,0.00015259,0.012055,0.049897
0.049592,-0.12161,-0.0068666,-0.036469,-0.088045,0.21622,-0.0071717,-0.01236
0.041962,-0.054475,-0.018463,-0.045319,-0.032807,0.18845,0.017548,-0.014801
0.031281,-0.015412,-0.048676,-0.057527,0.1268,-0.013275,-0.0053407,-0.065156
0.0050355,-0.017853,-0.068818,-0.069429,0.12222,-0.028229,0.053254,-0.08011
0.019074,-0.036774,-0.094148,-0.084382,0.065766,0.0099184,0.099031,-0.082246
-0.012665,-0.025483,-0.11124,-0.10117,-0.12161,0.034028,0.043793,-0.081331
-0.057221,-0.012055,-0.11093,-0.11032,-0.19059,-0.0047303,-0.030671,-0.037079
-0.053864,0.012055,-0.11429,-0.12284,-0.0086976,-0.054475,-0.38865,-0.024262
-0.057832,0.032197,-0.11551,-0.099336,-0.034943,-0.0068666,-0.13535,0.059663
-0.091707,0.1033,-0.095064,-0.08835,-0.073091,-0.0086976,0.11856,0.15213
-0.092927,0.057221,-0.068208,-0.10483,0.019684,-0.016022,0.032807,0.12863
-0.083772,0.0041199,-0.061799,-0.070954,0.018769,0.026093,0.06302,0.14237
-0.070954,-0.044099,0.0013733,-0.065461,0.27573,-0.019074,0.14084,0.11765
-0.034638,-0.10391,0.026398,-0.014801,0.11704,0.082551,0.27543,0.070649
-0.010834,-0.11093,-0.026398,-0.059052,-0.1265,0.082856,0.30014,0.0074769
0.02182,-0.13169,-0.0096132,-0.095674,0.0206,-0.0013733,0.13443,0.010834
0.044099,-0.14206,0.013886,-0.082246,0.046235,-0.074617,-0.24338,-0.032807
0.017548,-0.071565,-0.030976,-0.056306,0.065156,-0.10788,-0.62272,-0.12222
0.015412,-0.068513,-0.024567,-0.032502,0.045319,0.018463,-0.11948,-0.11948
-0.011444,-0.08011,-0.05417,-0.044099,0.036774,0.034333,0.13657,-0.075227
-0.031281,-0.037385,-0.077974,-0.082246,0.03006,0.015106,0.015106,-0.028229
-0.056611,0.019074,-0.10941,-0.085298,0.0028992,0.022736,0.16617,0.017548
-0.088045,0.067903,-0.13931,-0.10239,-0.0035096,-0.052033,-0.2269,0.019379
-0.11185,0.11032,-0.13291,-0.14939,-0.027008,-0.015106,0.020905,0.056306
-0.095979,0.11429,-0.121,-0.13077,-0.069123,0.033112,0.15335,0.045624
-0.069123,0.067597,-0.11032,-0.10758,-0.045319,-0.0096132,-0.0086976,0.049592
-0.053559,0.0056458,-0.081941,-0.12161,-0.028534,0.043488,0.085603,0.085298
-0.023651,-0.092622,-0.033722,-0.083467,-0.02945,0.13565,0.09659,0.048981
0.0028992,-0.14237,-0.022431,-0.06302,-0.14603,0.33066,0.012055,0.031281
0.034943,-0.17594,-0.031586,-0.015106,-0.015412,-0.089265,-0.061494,0.021515
0.035248,-0.043488,-0.0096132,-0.057221,0.16831,-0.46098,-0.040742,0.011444
0.053559,-0.04654,0.0206,-0.032807,0.081331,-0.061189,-0.075837,-0.047456
0.090791,-0.092927,0.0056458,-0.033112,0.015106,0.05539,-0.010834,-0.072786
0.059052,-0.13779,0.017243,-0.010529,0.040436,0.048066,0.019989,-0.081331
0.034028,-0.11765,-0.054475,-0.035248,0.045014,0.052338,0.036164,-0.065461
0.022736,-0.11368,-0.044709,-0.056916,0.043793,0.051423,0.10788,-0.039521
0.0065614,-0.15702,-0.018158,-0.049592,0.036774,0.044404,0.11826,-0.051118
-0.025483,-0.082856,-0.083467,-0.075532,0.023041,0.040131,0.090181,-0.049897
-0.061799,0.046235,-0.14084,-0.10666,0.10697,-0.024262,0.1149,-0.051423
-0.086213,0.084688,-0.1265,-0.063325,0.12314,-0.058137,-0.056611,-0.044709
-0.09781,0.097505,-0.11612,-0.13535,0.043183,-0.04654,-0.36698,-0.0080873
-0.10636,0.078279,-0.10483,-0.15183,-0.39017,0.027924,-0.06363,0.10086
-0.12741,0.094148,-0.10758,-0.12863,-0.13474,0.050202,0.13626,0.12528
-0.12467,0.06424,-0.14481,-0.075532,0.063935,0.011139,0.1442,0.14908
-0.10025,0.011749,-0.046235,-0.061189,-0.08957,0.040131,0.13718,0.16129
-0.10147,-0.010529,-0.0053407,-0.054475,0.031281,0.040131,0.067597,0.15793
-0.050813,-0.042573,-0.012055,-0.088655,0.0068666,0.024567,0.048981,0.17319
-0.0028992,-0.11551,0.03006,-0.095674,0.0019837,0.005951,0.02182,0.11215
0.033417,-0.13748,0.0086976,-0.15854,0.011444,0.053254,0.034333,0.013275
0.025177,-0.079805,-0.00076295,-0.10178,0.080415,0.040131,-0.1146,-0.061189
0.034028,-0.11826,-0.028229,0.034638,0.093233,-0.0074769,-0.2031,-0.083467
0.049287,-0.11826,-0.039216,0.015717,0.058137,0.0019837,-0.020905,-0.12192
-0.0013733,-0.050507,-0.081025,-0.066377,0.054475,0.010834,-0.013275,-0.17563
-0.041962,-0.020905,-0.086824,-0.065156,0.022126,0.039521,0.024872,-0.12375
-0.0044251,-0.036164,-0.10727,-0.068818,-0.0019837,0.015412,0.051728,-0.027619
0.0028992,-0.066377,-0.044404,-0.075227,0.043488,-0.017548,0.014801,-0.0044251
-0.030671,0.052338,-0.072175,-0.078584,0.036774,-0.00076295,0.022126,0.035248
-0.064546,0.12253,-0.075837,-0.086519,0.019989,0.0077821,0.017243,0.035554
-0.079805,-0.066072,-0.11093,-0.12772,0.023957,-0.028229,0.034333,0.04715
-0.050813,-0.059968,-0.076753,-0.11368,-0.010529,-0.03006,0.041352,0.092622
-0.051728,0.036469,-0.095979,-0.087129,-0.042878,0.00045777,-0.0065614,0.12802
-0.060578,0.021515,-0.083467,-0.092927,-0.02121,0.022736,0.013581,0.085603
-0.043793,-0.014496,-0.039216,-0.077363,-0.030671,0.023346,0.0019837,0.043793
0.0383,-0.12619,-0.00015259,-0.016632,-0.044404,0.0206,0.023041,0.060578
0.050507,-0.12741,0.018158,-0.063325,0.039216,-0.023041,0.030365,0.0038148
0.041352,-0.09781,-0.014191,-0.06424,-0.0074769,0.017243,0.01297,-0.069734
0.044404,-0.098116,-0.0022889,-0.073091,-0.15824,0.056611,-0.018463,-0.10697
0.016022,-0.093843,0.010834,-0.033417,0.019074,0.019989,0.0019837,-0.1146
-0.027619,-0.06424,-0.026398,-0.075532,0.10422,0.0028992,0.013275,-0.11368
-0.017548,-0.039826,-0.121,-0.090486,0.073396,0.031586,0.041962,-0.093843
-0.00076295,0.019989,-0.066682,-0.060273,0.049287,0.047456,0.072175,-0.048676
-0.041352,0.023957,-0.096895,-0.082551,0.043793,-0.0038148,0.103,-0.024262
-0.07187,0.037079,-0.13748,-0.089876,0.039216,-0.017548,-0.039521,-0.0032044
-0.10452,0.033722,-0.12467,-0.11154,0.0086976,-0.02121,-0.29496,-0.002594
-0.084993,-0.011749,-0.11124,-0.089265,-0.077668,-0.036164,-0.11368,0.066072
-0.050507,-0.034333,-0.086519,-0.12131,-0.091707,-0.023346,0.056001,0.13718
-0.051423,-0.027924,-0.03769,-0.08835,0.0019837,-0.015412,0.06302,0.14603
-0.059052,-0.017548,-0.060273,-0.080415,-0.0083925,0.0083925,0.095674,0.15518
-0.046845,0.05539,-0.059968,-0.032807,0.033417,0.034943,0.10239,0.16861
-0.059358,0.0056458,-0.027008,-0.11398,0.057832,0.0383,0.081636,0.10849
-0.022736,-0.088655,-0.02884,-0.057221,0.061799,0.010529,0.027314,0.031586
-0.016327,-0.12833,0.023346,-0.0010681,0.067903,-0.0077821,-0.016938,-0.0068666
-0.022431,-0.15488,0.029755,-0.010224,-0.036469,0.012055,-0.014801,-0.031281
-0.015412,-0.084077,-0.00045777,-0.018463,-0.15091,0.01236,0.010529,-0.035248
0.0035096,-0.083467,-0.041047,-0.10971,0.023041,-0.022126,0.016938,-0.061494
0.019074,-0.081636,-0.044099,-0.12497,0.11978,0.0065614,0.020294,-0.091707
0.035248,-0.050813,-0.066682,-0.059358,0.038911,0.047456,0.016632,-0.055085
0.021515,-0.051423,-0.081941,-0.074922,0.029145,0.027314,-0.018769,-0.015717
0.026703,-0.091402,-0.065156,-0.077363,0.039826,-0.0019837,-0.022431,-0.03769
-0.027619,-0.011444,-0.11246,-0.075532,0.019074,0.00076295,-0.0074769,-0.040742
-0.089265,0.088045,-0.15274,-0.11917,0.0206,-0.051118,-0.030671,-0.0041199
-0.1146,0.10361,-0.11887,-0.11276,-0.0013733,-0.050507,-0.035554,0.015412
-0.12833,0.12253,-0.11368,-0.10361,-0.033112,-0.0068666,-0.002594,0.045624
-0.10605,0.043183,-0.060273,-0.08957,-0.034943,0.019074,0.019989,0.06302
-0.087434,0.021515,-0.064546,-0.086519,-0.032197,0.022736,0.031281,0.095369
-0.076753,0.031586,-0.056916,-0.13199,-0.02121,0.041047,0.046235,0.092012
-0.035554,-0.067903,0.0086976,-0.061799,-0.022736,0.054475,0.059358,0.039216
0.015717,-0.12467,0.01236,-0.027619,-0.019379,0.038911,0.042878,0.0065614
0.075227,-0.1326,0.0019837,-0.0068666,0.016022,0.022126,0.019074,-0.010529
0.085298,-0.13962,0.014801,-0.083162,0.07248,0.0053407,0.0053407,-0.031586
0.070039,-0.16159,-0.018463,-0.06424,0.062104,0.0206,-0.010834,-0.052033
0.074006,-0.14969,-0.049897,-0.028534,0.037385,0.01297,-0.0050355,-0.069429
0.035859,-0.074617,-0.016938,-0.039521,0.061494,-0.0074769,-0.033112,-0.083772
0.012665,-0.029755,-0.083467,-0.090791,0.059358,0.0044251,-0.039521,-0.093843
-0.024872,0.0019837,-0.13626,-0.1146,0.02121,0.016327,-0.021515,-0.066072
-0.042878,0.10636,-0.1387,-0.08896,0.023346,0.0010681,-0.015106,-0.036469
-0.077058,0.13748,-0.12528,-0.067597,0.023651,-0.041047,0.023651,0.029145
-0.091707,0.074006,-0.11826,-0.065766,-0.0090028,-0.054475,0.050202,0.089876
-0.11246,-0.0038148,-0.057832,-0.12894,-0.017548,-0.075837,0.025177,0.096284
-0.12131,-0.01297,-0.055695,-0.13565,-0.20279,0.1149,0.028229,0.10788
-0.08896,-0.13657,-0.035554,-0.067597,-0.22141,0.19821,0.079194,0.12284
0.012055,-0.20462,-0.034943,0.0028992,-0.033722,0.023041,0.023346,0.10056
0.0050355,-0.10208,-0.078279,-0.11795,0.18967,-0.1088,-0.10636,0.018769
0.010834,-0.046845,-0.022431,-0.12894,0.35386,-0.086519,-0.12192,-0.035248
0.0016785,-0.015412,0.002594,-0.019379,-0.084993,0.074617,0.0080873,-0.033417
0.022126,-0.058442,-0.0099184,-0.02121,-0.087434,0.057221,0.20554,-0.018158
0.016938,-0.052338,-0.034943,-0.066377,0.051118,0.050813,0.26993,-0.024872
0.020294,-0.065766,-0.03769,-0.081025,0.029145,0.041657,0.22751,-0.0035096
0.017853,-0.082856,0.0053407,-0.024567,0.023957,0.019379,0.059358,0.037385
-0.0096132,-0.084077,-0.0016785,-0.032502,0.034333,-0.028229,-0.21927,0.019989
-0.069123,-0.002594,-0.076448,-0.093843,0.053864,-0.089876,-0.50278,-0.043488
-0.077668,0.040742,-0.095369,-0.095064,0.0074769,-0.020294,-0.25772,-0.010834
-0.064546,-0.022431,-0.11704,-0.088655,-0.013275,0.051118,0.23026,0.055085
-0.073396,-0.014496,-0.14755,-0.091402,-0.0053407,0.027314,0.15671,0.033112
-0.084993,0.071565,-0.10483,-0.1146,-0.026703,0.016632,0.12406,0.0035096
-0.11948,0.13809,-0.11429,-0.12131,-0.026703,0.0062562,0.11063,0.0035096
-0.082856,0.059968,-0.056001,-0.121,-0.055695,0.0032044,-0.25162,0.0032044
-0.066987,-0.069429,-0.077058,-0.088655,-0.063935,0.017853,-0.11856,0.04593
-0.043183,-0.09659,-0.066072,-0.077363,-0.018463,-0.0016785,0.087739,0.044404
-0.026703,-0.0047303,-0.040436,-0.074922,0.0050355,0.014496,0.094453,0.055695
-0.00045777,-0.048371,-0.0022889,-0.059052,0.016022,-0.0013733,0.098421,0.059968
0.016022,-0.094759,0.025483,-0.03769,0.0047303,0.056916,0.12253,0.034028
0.041962,-0.1323,0.030671,-0.027619,0.024872,0.057221,0.062104,-0.039216
0.027924,-0.081331,-0.0068666,-0.038911,0.056306,-0.0080873,-0.021515,-0.066987
0.052033,-0.12833,-0.027924,-0.063325,0.070344,-0.029145,-0.071565,-0.028229
0.065461,-0.15091,-0.025788,-0.07248,0.059358,-0.0047303,-0.082246,-0.041047
0.053254,-0.084077,-0.08835,-0.052949,0.028229,0.017853,-0.0019837,-0.12039
0.017853,-0.016938,-0.08896,-0.065766,0.039521,-0.032807,0.0383,-0.12619
-0.030671,0.047456,-0.11032,-0.12314,0.03769,-0.042878,-0.10208,-0.055085
-0.041352,0.040131,-0.11551,-0.121,-0.011444,0.002594,-0.019379,0.029755
-0.081636,0.028534,-0.12467,-0.12528,-0.034638,-0.00076295,0.029755,0.04715
-0.098421,0.055085,-0.10819,-0.15976,-0.049592,0.035554,0.10483,0.032807
-0.081941,0.025483,-0.073091,-0.091707,-0.095674,0.08835,0.13321,0.084382
-0.087129,0.041962,-0.098421,-0.039521,-0.047456,0.01236,-0.011444,0.11429
-0.059358,-0.020294,-0.048981,-0.07126,0.021515,-0.11398,0.02121,0.079194
-0.045014,-0.052949,-0.075837,-0.083467,-0.00076295,-0.013886,0.051118,0.035248
-0.035859,-0.069429,-0.030671,-0.079805,0.015106,0.034943,-0.21317,0.055085
-0.025788,-0.065461,0.017243,-0.043488,0.11795,0.0053407,-0.098116,0.037079
-0.019379,-0.06363,0.0080873,-0.026703,0.16312,-0.019379,0.10147,-0.0010681
0.011749,-0.15427,0.019989,-0.02945,0.10849,0.0032044,0.0795,-0.045319
0.026093,-0.18265,0.042267,-0.041047,-0.29526,0.099947,0.081941,-0.039521
0.027314,-0.1384,-0.017853,-0.043488,-0.096895,0.061494,0.023651,-0.0383
-0.034943,0.0099184,-0.066682,-0.08957,0.21958,-0.045319,-0.051118,-0.059358
-0.052949,0.016327,-0.1146,-0.082856,-0.014191,0.0080873,-0.023346,-0.010224
-0.072175,0.034333,-0.10697,-0.11917,0.033112,0.043183,0.06363,0.047456
-0.11215,0.058137,-0.12497,-0.16007,0.023651,-0.01297,0.12284,0.060273
-0.054475,0.0047303,-0.11337,-0.09781,0.034028,-0.066377,-0.087129,0.094148
-0.0022889,-0.06363,-0.088655,-0.075227,0.056001,0.018158,-0.11978,0.096895
-0.0010681,-0.033722,-0.074311,-0.06424,0.025177,0.16373,0.1323,0.094453
-0.076753,0.061799,-0.11978,-0.059663,-0.12161,0.31052,-0.0065614,0.046845
-0.084993,0.058747,-0.098726,-0.05539,-0.14359,-0.20829,0.0010681,0.039826
-0.038605,-0.030365,-0.043793,-0.061799,-0.11337,-0.27726,0.074617,0.03006
-0.01236,-0.062104,0.022431,-0.03769,0.012055,0.015412,0.016938,-0.032502
0.0013733,-0.076753,0.016327,-0.082246,0.087434,-0.026093,-0.010529,-0.055085
0.016938,-0.10544,0.011749,-0.06302,0.059968,0.0099184,-0.032502,-0.070039
0.028229,-0.11246,-0.0016785,-0.01236,0.031281,0.048676,0.016022,-0.091402
0.019684,-0.10178,-0.0083925,-0.025177,0.048066,0.015412,0.010529,-0.073091
0.017853,-0.084993,-0.060883,-0.092927,0.06363,0.00045777,0.0047303,-0.02945
0.02884,-0.10208,-0.030365,-0.067292,0.036164,0.02884,0.015717,0.0077821
0.010529,-0.086519,-0.03769,-0.026093,0.010529,0.044709,0.041657,0.041962
-0.033722,-0.052033,-0.099031,-0.15091,0.026703,0.024872,0.052949,0.04715
-0.034943,-0.0074769,-0.12284,-0.24369,0.042267,0.012055,0.028229,-0.020294
-0.047761,0.04593,-0.13962,-0.083467,0.023041,-0.0028992,0.040436,-0.034943
-0.08835,0.10056,-0.092012,-0.038911,0.010834,-0.0096132,0.08835,-0.027314
-0.093233,0.12711,-0.12833,-0.096284,-0.010834,-0.0077821,-0.022126,0.011749
-0.074006,0.10056,-0.1033,-0.1268,-0.037079,-0.0038148,-0.31907,0.0096132
-0.082246,0.052644,-0.086213,-0.099947,-0.065766,0.018158,-0.039826,-0.010834
-0.061799,0.019379,-0.0383,-0.043488,-0.045014,0.018463,0.11826,0.050507
-0.05539,-0.019989,-0.030671,-0.041047,0.027619,0.010224,0.052033,0.081331
-0.044709,-0.065461,-0.016938,-0.085908,0.056306,0.016938,0.051423,0.04593
0.014191,-0.15549,0.014191,-0.083772,0.03769,0.022126,0.047456,0.050507
0.035554,-0.1445,-0.039216,-0.020294,0.057221,0.030976,0.024872,0.038911
0.037079,-0.1619,-0.0086976,-0.025483,0.050507,0.017853,0.00076295,-0.0041199
0.06363,-0.19364,0.034333,-0.071565,-0.12222,0.043488,0.019684,0.011139
0.095674,-0.15885,-0.010224,-0.064546,-0.0074769,0.041047,-0.002594,-0.0074769
0.061799,-0.08072,-0.070954,-0.056916,0.076143,-0.00076295,-0.011444,-0.038911
-0.014496,-0.018158,-0.065766,-0.073701,-0.018463,0.002594,-0.011139,-0.035859
-0.048981,0.0013733,-0.04593,-0.059052,-0.027314,0.02121,0.020294,-0.010834
-0.084077,-0.026093,-0.096284,-0.06363,0.051423,0.010529,0.026703,-0.014496
-0.077668,-0.02182,-0.12314,-0.088655,0.053864,-0.013581,-0.01297,-0.009308
-0.082856,0.033112,-0.12558,-0.085298,0.0013733,-0.0080873,0.002594,0.011444
-0.1091,0.10941,-0.12711,-0.11551,-0.014191,-0.0062562,0.022736,0.039216
-0.10788,0.0972,-0.10269,-0.13291,-0.0035096,-0.027008,-0.025177,0.06302
-0.10056,0.07126,-0.085298,-0.12131,-0.026398,-0.023651,-0.035248,0.080415
-0.065461,0.037079,-0.077058,-0.087739,-0.041657,0.03006,0.025483,0.091402
-0.016327,-0.018463,-0.047761,-0.099336,-0.039826,0.050813,0.068513,0.040131
0.024872,-0.11643,-0.023041,-0.0090028,-0.020905,0.0206,0.061189,0.00076295
0.04654,-0.15549,0.0019837,-0.069429,0.009308,-0.013275,0.018769,-0.002594
0.047456,-0.12039,0.0044251,-0.099336,0.071565,-0.036164,-0.0050355,-0.025788
0.043793,-0.14054,0.04654,-0.045624,0.067292,-0.010834,-0.017243,-0.064546
0.0090028,-0.068513,-0.0038148,-0.01236,0.044099,0.0090028,-0.02945,-0.064851
-0.0074769,-0.053559,-0.024262,-0.056916,0.0383,0.042573,0.0019837,-0.022126
-0.012055,-0.06363,-0.022431,-0.050202,0.022126,0.073091,0.06363,-0.0074769
-0.011444,-0.060883,-0.07126,-0.022431,0.036774,0.04654,0.095674,-0.070954
-0.075532,0.035554,-0.12345,-0.091707,0.045319,0.0013733,0.0383,-0.070039
-0.077668,-0.028229,-0.078889,-0.10269,0.0086976,0.0041199,0.017243,-0.011139
-0.066072,-0.065766,-0.15854,-0.094759,-0.022736,-0.0010681,-0.025788,0.031281
-0.065766,-0.013886,-0.11124,-0.08835,0.0013733,-0.029145,-0.08072,0.053864
-0.08896,0.068208,-0.11276,-0.1912,-0.0053407,-0.01297,-0.075227,0.067597
-0.074922,0.053864,-0.10971,-0.16892,-0.035554,0.0068666,0.01297,0.10208
-0.065156,0.062104,-0.087129,-0.087434,-0.057527,0.02121,0.045624,0.099947
-0.025177,0.024262,-0.061189,-0.052644,-0.02945,0.011139,0.048981,0.062104
0.0068666,-0.0080873,-0.034943,-0.051728,-0.0086976,0.005951,0.011444,0.031281
0.0099184,-0.044099,0.019684,-0.044099,-0.0071717,0.0080873,-0.014496,-0.017243
0.0053407,-0.08835,0.030671,-0.051118,0.0028992,0.01297,-0.0053407,-0.039216
0.027924,-0.08072,-0.0090028,-0.037385,0.0053407,0.041657,0.017548,-0.038911
0.062104,-0.1622,0.0041199,-0.035554,0.032197,0.02884,0.058137,-0.025788
0.032197,-0.18235,-0.045624,-0.047456,0.066377,0.009308,0.094453,0.0071717
0.01297,-0.20005,-0.00015259,-0.030976,0.061799,0.019074,0.12802,-0.0041199
0.0028992,-0.17166,-0.048981,-0.042573,0.047456,-0.00076295,0.065156,0.0016785
-0.03769,-0.0044251,-0.092012,-0.069734,0.058442,-0.037079,-0.095369,0.04593
-0.094148,0.077668,-0.08957,-0.10788,0.033722,-0.011444,-0.16892,0.057832
-0.16007,0.13199,-0.1033,-0.13321,0.0096132,0.012665,-0.0010681,0.086213
-0.13321,0.049287,-0.094759,-0.093843,-0.014496,-0.0080873,0.018158,0.067292
-0.11704,0.062104,-0.19181,-0.15549,-0.030671,0.011139,0.056306,0.023346
-0.10636,0.088655,-0.12894,-0.13138,-0.030976,0.015412,0.0068666,0.010834
-0.091402,0.035554,-0.058137,-0.073701,-0.035248,0.022126,0.027008,0.040436
-0.066682,-0.044709,0.0022889,-0.046235,-0.024262,0.032502,0.047456,0.052033
-0.032502,-0.045624,-0.02884,-0.075532,0.0077821,0.00045777,0.037079,0.015106
0.022736,-0.054475,-0.034638,-0.084993,0.051118,-0.042878,0.0065614,0.011139
0.066377,-0.11246,-0.0099184,-0.033112,0.011444,-0.042267,0.010834,0.017548
0.082551,-0.14481,0.0041199,-0.042573,0.043183,-0.070649,-0.020905,-0.067292
0.067903,-0.11612,0.0083925,-0.050813,0.00076295,0.055085,-0.077974,-0.15061
0.059358,-0.056611,-0.049897,-0.044404,-0.098421,0.18936,-0.027008,-0.1384
0.059968,-0.084688,0.010529,-0.0019837,0.01297,0.050507,-0.002594,-0.090181
0.044404,-0.11795,-0.075837,-0.052949,0.11246,-0.034028,0.036164,-0.039521
-0.0080873,-0.047761,-0.09659,-0.10178,0.08957,0.0062562,0.092012,0.009308
-0.028229,-0.023346,-0.076143,-0.09781,0.057221,0.0062562,0.088655,0.041962
-0.077363,0.028534,-0.096284,-0.10513,0.041047,-0.026398,-0.0071717,0.040131
-0.12131,0.015717,-0.11063,-0.10575,-0.00045777,-0.024262,-0.053254,0.071565
-0.12558,-0.00045777,-0.10452,-0.11368,-0.036774,0.0028992,-0.064851,0.10056
-0.13016,0.074311,-0.11978,-0.1265,-0.04593,0.032197,0.043488,0.095979
-0.078279,0.086519,-0.10147,-0.12528,-0.049592,0.031586,0.08072,0.099641
-0.051728,0.042267,-0.082246,-0.098421,-0.055695,0.026398,0.059358,0.059358
-0.025483,-0.084688,-0.0090028,-0.07126,-0.023651,0.02121,0.16922,0.039521
0.0038148,-0.087739,-0.060578,-0.07248,0.0038148,0.0062562,0.19089,0.0053407
0.014801,-0.10056,-0.011749,-0.048371,0.00076295,0.037995,0.075532,-0.039826
0.0050355,-0.10452,-0.019684,-0.045624,0.037079,-0.00076295,0.041657,-0.069429
0.027619,-0.14572,0.0080873,-0.041047,0.066072,-0.0795,-0.20035,-0.037079
0.023346,-0.069429,-0.014191,-0.049592,0.068513,-0.034943,-0.23178,0.012055
0.012665,-0.14237,-0.0038148,-0.032502,0.056306,0.021515,0.17838,-0.015717
-0.0028992,-0.1442,0.0032044,-0.059663,0.019989,-0.018158,-0.44724,-0.051118
-0.019074,-0.051728,-0.045014,-0.072175,-0.013581,0.027924,-0.24582,-0.0041199
-0.055085,0.029145,-0.091096,-0.09781,-0.08072,0.064546,0.29129,0.027924
-0.08835,0.098116,-0.099031,-0.08835,-0.053559,0.032197,0.039216,-0.045624
-0.066072,0.092012,-0.12467,-0.077058,0.035248,0.027314,0.029145,-0.052644
-0.062715,0.11063,-0.12955,-0.11368,0.1503,-0.034333,0.02182,-0.010834
-0.042878,0.11276,-0.10056,-0.12985,0.37797,-0.086213,0.037079,0.022736
-0.046845,0.057832,-0.035554,-0.064851,-0.028229,0.082551,0.14603,0.098116
-0.050813,-0.099947,-0.046845,-0.04654,-0.30564,0.064546,0.11521,0.050202
-0.035859,-0.12894,-0.076448,-0.087739,-0.20981,-0.02121,0.16739,0.018769
-0.042878,-0.060273,-0.039216,-0.059358,-0.033112,0.0068666,0.31754,0.047456
-0.023346,-0.059663,-0.054475,-0.088655,0.042878,0.027008,-0.048371,0.077668
-0.0074769,-0.013886,-0.044099,-0.077668,0.02945,-0.0056458,-0.46525,0.056001
0.0047303,-0.073396,-0.034333,-0.058442,0.027924,-0.00015259,-0.27207,0.01297
0.011749,-0.090181,0.0074769,-0.025483,0.019379,0.034333,0.0038148,-0.00045777
0.019074,-0.12497,-0.012055,-0.045014,0.036164,-0.085908,-0.014191,-0.056916
0.01297,-0.16892,0.0038148,-0.087434,0.065156,-0.043183,0.014801,-0.076143
0.051423,-0.20645,0.0053407,-0.053254,0.03006,0.083772,0.067903,-0.024567
0.035248,-0.10666,-0.084688,-0.059663,0.017548,0.067597,0.051118,-0.039521
-0.00076295,0.045319,-0.10849,-0.09659,0.04593,0.031586,0.057527,-0.064546
-0.023651,0.041352,-0.082551,-0.070649,0.024872,-0.0071717,0.019989,-0.030976
-0.050507,0.049897,-0.11948,-0.089265,0.022736,-0.034028,0.019684,0.024872
-0.083162,0.082246,-0.13321,-0.13046,0.0056458,0.0062562,0.094453,0.056001
-0.08011,0.053559,-0.1088,-0.14389,0.04715,0.012665,0.051728,0.067903
-0.085908,0.092012,-0.11124,-0.085603,0.062409,0.0083925,0.02182,0.065461
-0.12314,0.12558,-0.10483,-0.13046,0.037079,0.0071717,0.021515,0.029755
-0.099947,0.014496,-0.030976,-0.076753,-0.28305,0.056611,0.056306,0.11978
-0.048676,-0.050813,-0.023041,-0.0795,-0.25315,0.051423,0.076753,0.16159
-0.023651,-0.099336,-0.020905,-0.053254,0.17014,-0.0383,0.039521,0.10819
0.041657,-0.11856,-0.032807,-0.0795,-0.024567,-0.014801,0.019074,0.049592
0.015106,-0.12985,0.022431,-0.047456,0.03769,0.033417,0.065156,-0.0053407
0.02121,-0.1622,0.047456,0.0053407,0.041657,0.052644,0.079194,-0.065156
0.013581,-0.11429,-0.024872,-0.011139,0.073091,0.023346,0.013581,-0.095064
-0.016327,-0.096895,-0.030671,-0.04654,0.075532,0.042267,0.037079,-0.068818
-0.033112,-0.054475,-0.062104,-0.070649,0.068208,0.0090028,-0.021515,-0.10208
-0.0035096,-0.10758,-0.015717,-0.061799,0.073701,-0.042267,-0.14542,-0.065461
-0.022736,-0.10666,-0.086824,-0.079194,0.070344,-0.040131,-0.17319,-0.016327
-0.055085,-0.0022889,-0.11368,-0.10575,0.025177,0.016327,0.041962,0.023651
-0.078279,0.087129,-0.13107,-0.10666,-0.017243,0.010224,0.078584,0.053559
-0.069734,0.069429,-0.10727,-0.10361,-0.010529,-0.025788,-0.018158,0.046235
-0.084993,0.091707,-0.12345,-0.10636,-0.0206,-0.016327,-0.015412,0.056001
-0.091096,0.10361,-0.12772,-0.099031,-0.034943,0.016938,0.063935,0.079194
-0.083162,0.083162,-0.12619,-0.10544,-0.036774,0.02121,0.13077,0.087739
-0.052644,-0.01297,-0.016632,-0.059052,-0.024567,0.009308,0.11887,0.085908
-0.027008,-0.083467,-0.0038148,-0.053254,-0.0068666,0.030671,0.14206,0.0206
-0.0053407,-0.092012,-0.019684,-0.083467,0.0099184,0.035554,-0.02884,-0.04654
0.0080873,-0.093843,0.011444,-0.046845,0.027314,-0.009308,-0.32944,-0.035554
0.011749,-0.080415,-0.012055,-0.075837,0.042878,0.015412,-0.036469,0.015412
0.033112,-0.10239,-0.027924,-0.074617,0.043183,0.023346,0.0795,0.011749
0.065156,-0.098421,-0.018463,-0.0383,0.017243,0.031281,0.0041199,0.0068666
0.069734,-0.14054,-0.018158,-0.028229,0.016022,0.024262,-0.00045777,-0.024567
0.028229,-0.10056,-0.010224,-0.045014,-0.015412,-0.031891,-0.024262,-0.093233
0.019989,-0.015717,-0.086824,-0.083467,0.017853,-0.045014,0.0053407,-0.081331
0.0071717,-0.02884,-0.084993,-0.063325,0.075227,0.030671,0.011749,-0.078279
-0.014191,-0.076753,-0.070344,-0.14359,0.023346,0.15824,-0.0071717,-0.066682
-0.06302,-0.023346,-0.14664,-0.22812,-0.10483,0.30838,-0.040742,-0.033112
-0.068818,-0.018463,-0.14054,-0.089265,0.021515,-0.22446,-0.00015259,0.036164
-0.060578,-0.013886,-0.093538,-0.048676,0.056001,-0.30198,0.081331,0.11185
-0.070954,-0.0206,-0.063325,-0.032502,-0.049287,0.040436,0.10178,0.121
-0.1033,0.13077,-0.090486,-0.13657,-0.028534,-0.010834,0.059663,0.10086
-0.092317,0.081941,-0.030671,-0.079194,-0.013275,0.02121,0.032197,0.11002
-0.052033,-0.048981,0.00015259,-0.044709,-0.0086976,0.027924,-0.045624,0.10544
-0.025788,-0.092317,-0.0206,-0.034333,0.0074769,0.023346,-0.025788,0.081636
-0.012055,-0.081331,-0.033112,-0.027008,0.02945,0.010529,0.016938,0.02945
0.0010681,-0.061799,-0.0068666,-0.069123,0.060273,0.019074,0.052033,0.029755
0.0080873,-0.065461,-0.0099184,-0.057527,0.045624,0.047456,0.067292,-0.013581
0.030365,-0.086824,-0.027619,-0.025177,0.044404,0.023346,-0.0047303,-0.13169
0.0099184,-0.091707,-0.02182,-0.041352,0.057221,0.01236,-0.013581,-0.12375
-0.029755,-0.062104,-0.051118,-0.10361,0.039826,0.042573,0.0099184,-0.079194
-0.030365,-0.021515,-0.076753,-0.10849,0.0099184,0.047456,-0.0050355,-0.05539
-0.033417,0.020294,-0.10117,-0.087129,-0.018463,0.043488,0.054475,-0.016632
-0.065156,0.019379,-0.10025,-0.08896,-0.023651,0.030671,0.0038148,0.010834
-0.056916,-0.016022,-0.11887,-0.103,-0.01236,0.0041199,-0.086824,0.025788
-0.04715,0.051423,-0.14633,-0.10697,-0.014191,0.00045777,0.028229,0.048981
-0.052644,0.032197,-0.09659,-0.096895,-0.00076295,-0.024872,-0.040436,0.019684
-0.055085,0.012665,-0.081025,-0.065461,0.018158,-0.048066,-0.073091,0.057832
-0.061494,0.014191,-0.066987,-0.073091,0.016938,-0.054475,0.077363,0.10178
-0.047761,-0.042267,-0.023957,-0.061494,0.019379,-0.09659,0.039826,0.094759
-0.033417,-0.059358,-0.016938,-0.10544,0.029755,-0.045624,-0.024262,0.045624
-0.015717,-0.076753,-0.0068666,-0.068208,-0.1384,0.21195,-0.010224,-0.015717
-0.00045777,-0.10575,0.0019837,-0.043488,-0.12314,0.20188,0.032197,-0.0032044
0.023957,-0.10666,-0.023041,-0.056306,0.043488,0.026398,0.052949,0.033417
0.04715,-0.099947,0.0062562,-0.030976,0.036774,0.03006,0.10147,0.0086976
0.024262,-0.086213,-0.015717,-0.0383,0.067292,-0.011749,0.047456,-0.059358
0.03006,-0.066377,-0.059358,-0.064546,0.090791,-0.039521,0.037079,-0.064546
0.034028,-0.033417,-0.076753,-0.095674,0.076448,0.0028992,0.024872,-0.039521
0.019074,-0.059968,-0.033112,-0.10391,0.10269,-0.0016785,-0.026703,-0.0206
0.0071717,-0.121,-0.059358,-0.066682,0.076753,-0.011444,-0.024872,-0.018158
-0.08835,-0.034333,-0.18143,-0.1207,0.07248,-0.030365,-0.023651,-0.035554
-0.10941,0.10147,-0.12772,-0.083467,0.041047,-0.017243,-0.0050355,-0.020294
-0.11612,0.13718,-0.13321,-0.12192,-0.15824,0.02884,0.044099,-0.019379
-0.12009,0.095369,-0.11978,-0.1387,-0.27939,0.0013733,0.019074,0.002594
-0.10178,0.014191,-0.044404,-0.074922,-0.10483,-0.02121,0.0032044,0.051728
-0.078889,-0.013886,-0.0090028,-0.057527,0.03006,-0.009308,-0.0096132,0.06302
-0.042878,-0.074311,-0.034028,-0.044404,0.033417,-0.0013733,-0.016327,0.07126
-0.015412,-0.13687,0.030976,-0.023041,0.057221,0.0041199,-0.014496,0.072175
0.034943,-0.1561,-0.013581,-0.040436,0.073701,-0.010834,-0.01236,0.083467
0.037079,-0.14694,-0.018463,-0.07126,0.067292,0.00045777,-0.0090028,0.026703
0.027008,-0.084382,-0.014496,-0.069123,0.05539,0.020905,0.025483,-0.014191
0.037079,-0.074922,-0.014496,-0.054475,0.033722,0.032197,0.10239,0.0086976
0.0016785,-0.046845,-0.01297,-0.041352,-0.031586,0.050813,0.17044,-0.010224
-0.024262,-0.042573,-0.028534,-0.025483,-0.019684,0.080415,0.2208,-0.0035096
-0.023346,0.012055,-0.12253,-0.072786,0.052338,0.050202,0.17258,0.039826
-0.07126,0.044099,-0.1265,-0.11276,0.11704,0.012055,0.095369,-0.0065614
-0.12131,0.12009,-0.12863,-0.19089,0.3328,-0.057527,-0.23056,-0.057832
-0.12375,0.044099,-0.078584,-0.12375,-0.044709,0.0044251,-0.17044,0.011444
-0.11032,-0.040131,-0.066682,-0.071565,-0.18509,-0.049592,-0.32944,0.034028
-0.086213,0.027619,-0.13962,-0.1088,-0.020905,-0.066072,-0.35203,0.060578
-0.072175,0.039826,-0.12497,-0.083467,-0.044709,0.029145,-0.018158,0.10605
-0.018463,0.024262,-0.098421,-0.094453,-0.049287,0.035554,0.19913,0.11704
0.030976,-0.044709,-0.02884,-0.072175,-0.023651,0.0099184,0.071565,0.061189
0.041047,-0.086824,0.017548,-0.020294,-0.0065614,0.031586,0.089876,-0.015106
0.034943,-0.09659,0.038605,-0.066682,0.04715,0.028534,0.11704,-0.033722
0.050507,-0.10239,-0.040436,-0.12375,0.060578,0.012055,0.070039,-0.052644
0.053254,-0.093843,-0.02182,-0.051728,0.0086976,0.045014,0.092927,-0.010834
0.053254,-0.099947,0.026398,-0.025483,0.0096132,0.069734,0.070039,-0.027314
0.041962,-0.09659,-0.013581,-0.032807,0.0074769,0.037079,-0.045014,-0.058137
0.03769,-0.082856,-0.013886,-0.022736,-0.12436,-0.1033,-0.12619,-0.090791
-0.0096132,-0.062104,-0.046845,-0.031586,0.0056458,-0.10269,-0.12589,-0.091707
-0.019684,-0.13474,-0.061799,-0.047456,0.10483,0.023346,0.0016785,-0.075227
-0.057221,-0.15152,-0.10361,-0.11185,0.061494,0.0022889,0.034333,-0.043183
-0.10513,-0.077974,-0.1854,-0.14755,0.052033,-0.015412,-0.015412,0.0041199
-0.1207,-0.018769,-0.13474,-0.13504,-0.010529,0.019989,0.023041,0.087739
-0.10544,0.098726,-0.11612,-0.078584,-0.031281,0.042267,0.075532,0.12467
-0.11124,0.17563,-0.096284,-0.077668,-0.0086976,0.015412,0.10452,0.10849
-0.10697,0.15518,-0.092927,-0.11063,0.016022,-0.013886,0.17655,0.080415
-0.078889,0.12772,-0.075837,-0.11185,-0.010529,0.016938,0.041047,0.12833
-0.035859,0.039521,-0.047761,-0.13596,-0.04715,0.022736,-0.064851,0.14542
-0.0056458,-0.024262,-0.010224,-0.050507,-0.059968,0.067292,0.10025,0.1091
0.0053407,-0.070344,-0.01236,-0.056916,-0.0096132,0.050507,0.10147,0.019379
0.014191,-0.12894,0.0099184,-0.067292,0.048371,0.017853,0.042878,-0.049592
0.024872,-0.168,0.0206,-0.092317,0.037385,0.034943,0.047761,-0.079805
0.061189,-0.16159,0.027314,0.00045777,0.011444,0.045319,0.06302,-0.08835
0.053254,-0.14237,-0.022736,-0.0083925,0.033417,0.010224,-0.090181,-0.075532
0.033417,-0.103,-0.037995,-0.02945,0.084382,-0.043793,-0.40513,-0.082856
0.0090028,-0.084382,-0.040436,-0.052338,0.055085,-0.015412,-0.12039,-0.10086
0.0038148,-0.028534,-0.12253,-0.099641,0.032807,0.010224,0.081941,-0.081941
-0.0080873,0.044404,-0.082856,-0.10452,0.052949,0.014496,0.040131,-0.033722
-0.026398,0.019989,-0.093233,-0.13474,0.029755,0.014801,0.030976,0.011749
-0.074617,-0.062104,-0.11856,-0.10452,-0.0083925,-0.0041199,-0.0035096,0.024872
-0.14237,0.065766,-0.14145,-0.099641,-0.04654,-0.042878,-0.030671,0.060578
-0.11215,0.069429,-0.10361,-0.11032,0.0050355,-0.022736,0.045319,0.12009
-0.083162,0.022736,-0.081025,-0.096284,0.07126,0.0010681,0.075227,0.13993
-0.058137,0.0032044,-0.037995,-0.061494,0.043183,0.013275,0.035859,0.10758
-0.036774,0.01236,-0.056001,-0.066987,-0.084688,0.033417,0.034943,0.05539
0.033417,-0.043793,-0.023651,-0.041352,-0.3682,0.089876,0.067903,0.036774
0.045319,-0.06363,0.0086976,-0.036164,0.14115,0.0090028,0.050507,-0.014191
0.033112,-0.12284,0.0206,-0.050813,0.092012,-0.02945,0.0056458,-0.067292
0.0074769,-0.15885,0.028229,-0.05539,0.025177,-0.0090028,-0.085603,-0.13565
-0.01236,-0.14023,-0.0013733,-0.025483,0.064546,0.026093,-0.12131,-0.12467
-0.027619,-0.10483,-0.027924,-0.042878,0.0035096,0.035248,0.0086976,-0.053559
-0.044404,-0.018158,-0.082551,-0.060273,0.013275,-0.0071717,0.061494,-0.0050355
-0.041352,-0.042267,-0.078279,-0.086824,0.088045,-0.04654,0.036774,0.022736
-0.056001,0.016022,-0.11032,-0.091096,0.099336,-0.085298,0.0086976,0.0041199
-0.048981,0.0038148,-0.09659,-0.050202,-0.051728,0.097505,0.015717,0.0090028
-0.10361,0.076448,-0.15549,-0.12955,-0.12131,0.18112,0.095979,0.034333
-0.10941,0.10178,-0.092012,-0.1912,-0.0035096,0.03006,0.12497,0.08072
-0.095674,0.044404,-0.1088,-0.1088,-0.026398,0.022126,0.11917,0.16709
-0.090791,0.019074,-0.084382,-0.168,-0.023041,0.0032044,0.020905,0.15885
-0.048676,-0.01236,-0.043183,-0.056611,-0.0041199,-0.0086976,0.018158,0.12497
-0.022126,-0.042267,-0.070649,-0.043183,-0.016938,0.0083925,0.10422,0.094148
-0.023346,-0.023346,-0.056916,-0.074617,0.026703,-0.0383,0.13107,0.034333
0.016632,-0.038911,-0.00076295,-0.039216,0.023651,-0.023957,-0.053559,0.031281
0.053864,-0.15671,0.046235,-0.042878,0.036774,-0.005951,-0.25956,-0.019684
0.057832,-0.18601,0.0086976,-0.045014,0.074311,-0.021515,-0.062715,-0.060883
0.080415,-0.18448,-0.00015259,-0.027008,0.084688,-0.014191,-0.16251,-0.060578
0.055695,-0.12802,-0.041657,-0.064546,0.0795,-0.033417,-0.25589,-0.12406
0.061189,-0.1445,-0.020294,-0.014191,0.00076295,0.020905,0.06363,-0.07126
0.053559,-0.076143,-0.038911,-0.048676,-0.0022889,0.085298,0.11368,0.0099184
0.018769,0.027314,-0.10147,-0.091402,0.015106,0.2153,0.02945,-0.0022889
-0.031586,0.037385,-0.093233,-0.10758,-0.069123,0.20249,-0.053254,-0.044709
-0.048371,0.048066,-0.0972,-0.079805,0.1442,-0.3917,-0.041657,-0.07126
-0.045014,0.066682,-0.14145,-0.10727,0.1268,-0.16892,0.03006,-0.066072
-0.082856,0.11795,-0.14786,-0.11887,0.019074,0.026093,0.041352,-0.046845
-0.10391,0.040742,-0.10605,-0.12345,-0.01236,-0.0056458,0.083772,-0.012665
-0.11521,0.0077821,-0.075227,-0.10239,-0.20401,0.06424,0.057527,0.022736
-0.10544,-0.022431,-0.034333,-0.06424,-0.26474,0.0383,-0.011444,0.059358
-0.10819,0.00045777,-0.054475,-0.10513,-0.028534,-0.00015259,0.043183,0.092927
-0.088045,-0.039521,-0.0047303,-0.072175,0.074311,0.016327,0.084077,0.12161
-0.019074,-0.1207,-0.005951,-0.056611,0.027008,0.050507,0.087434,0.12375
0.012665,-0.14755,-0.00015259,-0.02121,0.036774,0.050507,0.058442,0.036164
0.011139,-0.092317,-0.014801,-0.015106,0.063325,0.037385,0.0068666,-0.020294
0.020905,-0.10361,-0.0206,-0.058747,0.076143,0.033112,0.0096132,-0.041352
0.037385,-0.12558,-0.0080873,-0.034638,0.050507,0.033417,0.016938,-0.049897
0.020905,-0.078889,-0.016327,-0.053254,0.056306,0.01297,0.032197,-0.051423
0.011749,-0.068818,-0.057221,-0.069734,0.082246,-0.010224,0.0074769,-0.059052
0.0050355,-0.083467,-0.047761,-0.064546,0.048981,0.0032044,-0.13626,-0.030671
-0.053864,0.0038148,-0.11093,-0.12375,0.03769,-0.027619,-0.057832,0.0041199
-0.076753,0.075837,-0.13993,-0.12802,0.005951,-0.033112,-0.045014,0.068513
-0.091096,0.098116,-0.11337,-0.13046,-0.016632,-0.019989,-0.059663,0.092317
-0.10178,0.11124,-0.14145,-0.09781,-0.039521,0.00015259,0.11521,0.091402
-0.086213,0.077668,-0.11704,-0.10849,-0.039521,0.00076295,0.08011,0.1088
-0.051118,-0.012055,-0.044404,-0.077363,-0.036469,0.012665,0.067292,0.10971
-0.043183,-0.050507,-0.052338,-0.066377,-0.051423,0.058137,0.095979,0.067903
-0.024872,-0.043793,-0.07248,-0.065766,-0.037079,0.024567,0.022736,0.037079
-0.015717,-0.082551,-0.005951,-0.041352,-0.018769,0.030365,0.0038148,0.033722
0.022126,-0.12802,0.018158,-0.025483,-0.014191,0.041657,-0.0022889,-0.0096132
0.031281,-0.063935,-0.044099,-0.11368,0.011444,0.022431,-0.0022889,-0.075532
0.036164,-0.075532,0.0038148,-0.14878,0.04715,0.026703,0.02121,-0.087434
0.020905,-0.14572,-0.0028992,-0.059052,0.064546,0.021515,0.04715,-0.061494
0.039826,-0.13046,-0.00045777,0.022126,0.073701,0.034028,0.036164,-0.036469
0.032807,-0.056611,-0.027924,-0.052644,0.057832,0.027924,-0.014496,-0.0206
0.038911,-0.099947,-0.049287,-0.061799,0.034028,0.011444,-0.054475,-0.030365
0.0028992,-0.060578,-0.095369,-0.059052,0.02182,-0.095674,-0.083467,-0.05539
-0.055085,0.066682,-0.1268,-0.093843,0.013886,-0.095369,-0.04593,-0.035554
-0.089876,0.1387,-0.14298,-0.11948,-0.014191,0.038911,0.080415,0.017548
-0.13657,0.11276,-0.11215,-0.095064,-0.009308,0.0028992,0.10422,0.043488
-0.13169,0.045624,-0.10666,-0.045319,-0.011444,0.01297,0.010529,0.067597
-0.10819,0.035248,-0.1265,-0.14542,-0.0096132,0.00076295,-0.061799,0.069123
-0.10452,0.071565,-0.10971,-0.1854,-0.040742,0.010529,0.041657,0.10056
-0.059968,-0.00045777,0.014801,-0.061799,-0.07126,-0.0038148,-0.016938,0.13321
0.014191,-0.20584,0.035859,0.027619,-0.030365,-0.025788,-0.23423,0.08011
-0.017243,-0.14206,-0.049287,-0.093233,0.019684,0.024872,-0.079805,0.037995
-0.038605,-0.093843,0.020905,-0.092927,0.023346,0.048676,0.15549,0.014801
0.002594,-0.14176,0.10208,0.051728,-0.018158,0.051728,0.064546,-0.0028992
0.016632,-0.13809,-0.018158,0.0050355,-0.020905,0.034333,0.026703,-0.041962
0.023957,-0.077668,-0.05478,-0.049592,0.026093,-0.0074769,0.013886,-0.05539
0.04593,-0.066377,-0.034638,-0.068208,0.056916,0.0090028,0.037995,-0.060578
0.048066,-0.069429,-0.082551,-0.12039,0.098421,-0.0022889,0.045319,-0.073396
0.0038148,-0.03769,-0.08011,-0.056306,0.34897,-0.036164,0.024872,-0.064851
-0.043793,0.075227,-0.14115,-0.092317,0.040131,0.068208,0.037995,-0.036469
-0.042573,0.077668,-0.12467,-0.16709,-0.15274,0.055695,0.038911,-0.023651
-0.051423,0.024262,-0.11063,-0.1146,-0.048981,-0.01297,-0.039521,-0.012665
-0.081331,0.049897,-0.11154,-0.078279,-0.068513,-0.019684,-0.074617,0.0068666
-0.081025,0.041657,-0.12253,-0.1149,-0.045624,-0.010834,0.00076295,0.016632
-0.094148,0.034333,-0.096284,-0.11704,-0.061494,0.012055,0.070344,0.046845
-0.048981,0.012665,-0.056306,-0.1265,-0.069734,0.032197,0.092622,0.095369
-0.014801,-0.024567,-0.04654,-0.058442,-0.039216,0.015412,0.079194,0.075837
0.019684,-0.10483,-0.013886,-0.044099,-0.0013733,0.012665,0.11765,0.028229
0.022126,-0.086824,-0.018769,-0.050202,0.029755,-0.0022889,0.07126,0.016938
0.034943,-0.13626,0.023651,-0.015106,0.023651,-0.0010681,-0.28153,-0.039216
0.05417,-0.15763,0.013581,-0.015106,0.049592,0.009308,-0.099641,-0.040436
0.052033,-0.1503,-0.0065614,-0.015412,0.061799,0.00015259,0.080415,-0.011444
0.047456,-0.11429,-0.026093,-0.088655,0.073396,0.0013733,-0.0047303,-0.05539
0.035859,-0.11246,-0.0028992,-0.048371,0.06424,-0.0056458,-0.20066,-0.066987
-0.02121,-0.044099,-0.068513,-0.051423,0.048981,-0.027008,-0.31418,-0.034333
-0.091707,0.10605,-0.15061,-0.10513,0.045624,-0.0035096,0.10636,0.012665
-0.12222,0.14328,-0.14481,-0.1265,0.013581,0.044404,0.42802,0.056001
-0.12161,0.075532,-0.10666,-0.15885,-0.0065614,0.066682,0.24094,0.121
-0.099031,0.0041199,-0.063325,-0.11704,-0.043488,0.077058,0.089265,0.12192
-0.091096,-0.041962,-0.056001,-0.095064,-0.060883,0.027924,0.055085,0.10971
-0.073091,-0.097505,-0.057832,-0.085603,-0.04654,-0.045319,-0.18845,0.041962
-0.015717,-0.12558,-0.098421,-0.058442,-0.018158,-0.061799,-0.45975,-0.0096132
0.0065614,-0.01297,-0.10025,-0.056611,0.0074769,-0.013886,-0.028229,0.0099184
-0.014801,0.063325,-0.03006,-0.056916,0.029755,-0.05417,0.08835,-0.012055
-0.024872,0.014191,-0.050202,-0.034333,-0.0053407,-0.011444,0.040436,0.0010681
-0.0022889,-0.038605,0.00045777,-0.019684,-0.00076295,0.026093,0.11276,-0.027619
0.019989,-0.121,0.029755,-0.075532,0.018769,0.038605,0.08957,-0.030671
0.022126,-0.16892,0.038911,-0.068513,0.054475,-0.0022889,-0.0022889,-0.034333
0.025177,-0.19303,0.0086976,-0.021515,0.055695,0.00076295,-0.045014,-0.010529
-0.031281,-0.090181,-0.058137,-0.10971,0.062104,-0.017853,0.0041199,-0.00076295
-0.043183,-0.034638,-0.074311,-0.096895,-0.00045777,0.054475,0.1976,0.027314
-0.060883,-0.024567,-0.07248,-0.065461,-0.053559,0.11978,0.23636,0.024262
-0.072175,0.02121,-0.11032,-0.078889,0.011444,0.051118,0.11612,-0.0041199
-0.073091,0.063325,-0.11917,-0.10941,0.013581,0.019379,0.082856,0.027008
-0.067597,0.078279,-0.14359,-0.10513,-0.014801,-0.011444,-0.055695,0.051118
-0.033417,0.028229,-0.099641,-0.1088,-0.0090028,-0.07126,-0.28702,-0.0206
-0.037385,0.0083925,-0.074006,-0.0795,-0.010834,-0.024872,-0.081941,-0.050507
-0.059052,0.037079,-0.091402,-0.05478,-0.0050355,-0.025788,-0.18387,-0.0047303
-0.062104,0.05539,-0.084993,-0.081331,-0.0010681,-0.039216,-0.27695,0.073701
-0.026703,0.022736,-0.056611,-0.11368,0.0068666,-0.023957,0.11704,0.094759
-0.0086976,-0.026093,-0.032502,-0.074311,-0.0068666,0.023041,0.17075,0.068513
0.0056458,-0.10147,0.0035096,-0.046235,-0.0071717,0.026093,0.10361,0.042878
0.027008,-0.11734,0.010529,-0.078279,0.013886,0.026093,0.047456,-0.0086976
0.025483,-0.12406,-0.0086976,-0.061189,0.016938,0.047456,-0.052949,-0.074922
0.054475,-0.1445,-0.01236,-0.026093,0.027314,0.06424,0.04654,-0.098421
0.064546,-0.13077,-0.0053407,-0.014191,0.052338,0.026093,0.092927,-0.079194
0.053559,-0.087434,-0.030365,-0.057221,0.076448,0.002594,0.00045777,-0.073091
0.0068666,-0.055695,-0.051728,-0.074311,0.06302,0.014496,-0.053559,-0.070649
-0.029145,0.011444,-0.057832,-0.10941,0.0383,0.029145,-0.017548,-0.038911
-0.04715,-0.005951,-0.10819,-0.14145,0.043793,-0.0022889,0.017243,0.020905
-0.053254,-0.051728,-0.090486,-0.075227,0.045624,-0.055695,-0.023651,0.027008
-0.091402,-0.0099184,-0.12833,-0.078279,0.010834,-0.093538,-0.030976,0.016938
-0.12528,0.081331,-0.12497,-0.13077,-0.040436,-0.039826,0.038911,0.019074
-0.099031,0.041657,-0.10361,-0.082246,-0.14481,0.15579,0.11032,0.095979
-0.025483,-0.00015259,-0.10544,-0.069123,-0.063325,0.15549,0.14267,0.1622
0.010834,-0.016327,-0.067903,-0.044099,0.056916,0.0044251,0.12161,0.14237
-0.032502,0.019684,-0.072786,-0.10452,0.1149,-0.074006,0.034943,0.06302
-0.065156,-0.010834,-0.074922,-0.14786,0.030365,-0.039216,-0.15183,0.022736
-0.036469,-0.094759,0.034333,-0.05417,-0.26444,0.031586,-0.2797,0.052338
-0.037079,-0.12253,0.044404,-0.040131,-0.2269,-0.022736,-0.064546,0.048371
-0.016938,-0.14572,0.0383,-0.013275,0.067597,-0.0032044,0.11185,0.013581
0.0038148,-0.10849,-0.015412,-0.012055,0.1207,0.033112,0.13169,-0.018769
-0.016632,-0.075837,-0.029755,-0.092927,0.11063,0.029145,0.10636,-0.031281
-0.016632,-0.066377,-0.038605,-0.096284,0.084688,0.051728,0.068208,-0.051118
-0.041962,-0.033722,-0.072786,-0.075227,0.033722,0.034638,0.044404,-0.074922
-0.05539,-0.00015259,-0.086824,-0.069734,0.027619,0.00015259,-0.00015259,-0.079805
-0.071565,0.034333,-0.092012,-0.069734,0.031586,0.016938,-0.018769,-0.066072
-0.086824,0.060578,-0.15732,-0.096895,0.0096132,0.016938,-0.027008,-0.024262
-0.072175,0.085908,-0.11948,-0.099336,-0.019379,-0.0028992,-0.042573,0.032807
-0.053559,0.059968,-0.1146,-0.10941,-0.019684,-0.10361,-0.061799,0.043488
-0.052644,0.032197,-0.099641,-0.11032,-0.024262,-0.041962,0.017853,0.051423
-0.057527,0.040436,-0.053864,-0.12589,-0.019379,0.024262,0.1561,0.084077
0.0065614,-0.10056,-0.0028992,-0.06424,-0.02121,0.048981,0.13809,0.13626
-0.0013733,-0.13138,-0.066377,-0.064851,-0.019684,0.057527,0.05417,0.079805
0.016022,-0.087739,-0.036774,-0.06363,0.0068666,0.020294,-0.037385,0.017548
0.025483,-0.081636,-0.0090028,-0.024567,0.014801,0.011444,-0.12589,-0.029755
0.026703,-0.074617,-0.030976,-0.076448,0.033112,-0.0074769,-0.16068,-0.064851
0.035859,-0.08896,0.039521,-0.043183,0.046845,0.00045777,-0.091402,-0.048676
0.0383,-0.16342,0.0044251,-0.04715,0.043488,0.0065614,0.027008,-0.041962
0.023957,-0.16983,0.009308,-0.030976,0.065156,0.0062562,0.11002,-0.031281
-0.009308,-0.068513,-0.074006,-0.068818,0.059663,0.034638,0.17746,0.016022
-0.016938,-0.035554,-0.103,-0.056306,0.048066,0.042267,0.15305,-0.0032044
-0.017548,-0.00015259,-0.068513,-0.034638,0.019989,0.011139,0.048981,0.002594
-0.039826,0.050202,-0.10666,-0.1146,0.041657,-0.049897,-0.22263,-0.018158
-0.067903,0.083467,-0.11978,-0.168,0.0028992,-0.01297,-0.2269,-0.024872
-0.082856,0.015106,-0.11734,-0.13993,-0.042878,0.047456,0.12314,0.049897
-0.11246,0.05417,-0.12345,-0.11521,0.063325,-0.0080873,0.040436,0.051728
-0.075837,0.022431,-0.12619,-0.055085,0.053864,0.0080873,0.018769,0.073701
-0.08896,0.08957,-0.11673,-0.12192,-0.0090028,0.015106,0.00045777,0.053559
-0.077058,0.034333,-0.053254,-0.11368,-0.38499,0.050507,-0.0044251,0.029755
-0.041047,-0.0083925,0.0019837,-0.10147,-0.08072,0.017243,0.055085,0.019989
-0.014496,-0.075837,0.048066,-0.015412,0.12589,-0.052338,0.026703,0.0068666
0.019989,-0.10788,0.01236,-0.016022,0.0056458,-0.025788,-0.0083925,-0.0032044
0.020294,-0.14481,0.013581,-0.039521,0.079805,0.024567,0.0016785,-0.031891
0.054475,-0.19791,0.027314,-0.016022,0.043183,0.037385,0.025788,-0.056611
0.050202,-0.12802,-0.037995,-0.083162,0.063325,0.005951,0.079805,-0.029755
0.030976,-0.11215,-0.052644,-0.056611,0.073091,-0.0016785,0.064546,-0.038911
0.0074769,-0.081636,-0.066987,-0.065461,0.036164,0.080415,0.021515,-0.047456
0.0010681,-0.058442,-0.046235,-0.034333,-0.024262,0.20371,-0.059358,-0.044404
-0.024567,-0.019379,-0.10483,-0.019074,-0.075227,0.17502,-0.11582,-0.033722
-0.034333,0.026703,-0.12558,-0.069123,0.12558,-0.41825,-0.090181,0.0096132
-0.058747,0.07248,-0.15915,-0.17716,0.081941,-0.18875,0.0096132,0.04593
-0.09781,0.12772,-0.1384,-0.23239,-0.031586,0.035248,0.024262,0.058137
-0.075227,0.022126,-0.062409,-0.10788,-0.033112,-0.0035096,0.057221,0.094759
-0.096895,0.041962,-0.07248,-0.11734,-0.014496,0.012665,0.082551,0.057527
-0.10056,0.063935,-0.066377,-0.063325,-0.045624,0.044709,0.047456,0.089876
-0.072175,0.0099184,-0.051118,-0.053254,-0.089876,0.056611,0.002594,0.11002
-0.015106,-0.14206,-0.021515,-0.07248,-0.028534,0.025177,-0.0047303,0.059968
0.0035096,-0.19669,0.02945,-0.02121,0.0032044,0.030365,0.066377,0.019989
0.02182,-0.15244,0.0071717,-0.057221,0.041047,-0.0071717,0.21714,-0.034333
0.023346,-0.13779,0.0053407,-0.052644,0.061494,-0.0090028,0.051118,-0.050507
0.058137,-0.11826,-0.020294,0.0086976,0.041047,0.0041199,-0.26169,-0.041962
0.023651,-0.0044251,-0.044099,-0.026093,0.057527,0.017853,-0.08011,-0.070649
0.002594,-0.016938,-0.052338,-0.056611,0.067292,0.017853,0.017853,-0.041047
-0.0068666,0.017548,-0.078279,-0.050813,0.02182,0.031281,0.033417,-0.023041
0.0032044,-0.016022,-0.052949,-0.12314,0.028229,0.009308,0.012665,-0.036469
-0.051118,-0.041657,-0.11368,-0.11032,0.031586,-0.0016785,-0.0013733,-0.0206
-0.085603,0.015717,-0.12253,-0.11795,0.00076295,0.0068666,0.041047,0.012665
-0.10056,0.077668,-0.12863,-0.12894,-0.026703,0.018463,0.070649,0.025177
-0.099031,0.049287,-0.10422,-0.13138,-0.056916,0.048676,0.082856,0.010529
-0.11337,0.03769,-0.08011,-0.073701,-0.070039,0.040742,0.11795,0.032197
-0.12039,0.034333,-0.098421,-0.070649,-0.11795,-0.00076295,0.065766,0.066072
-0.081636,0.014191,-0.052644,-0.074922,-0.071565,-0.045319,-0.030671,0.088655
-0.03769,-0.033417,-0.054475,-0.12711,-0.0086976,-0.06302,-0.10147,0.065766
-0.00076295,-0.077974,0.002594,-0.045624,0.10208,-0.032807,-0.13321,0.011444
0.024872,-0.11887,0.0062562,-0.030671,0.30198,-0.016938,-0.40391,-0.0086976
0.04654,-0.14755,-0.015412,-0.02945,-0.046845,0.12345,0.030365,0.035554
0.059358,-0.16587,0.018158,-0.051118,-0.069429,0.062715,0.23178,0.0068666
0.025177,-0.069429,-0.018769,-0.078889,0.066072,-0.015412,0.046235,-0.081025
0.032807,-0.073396,-0.0065614,-0.027008,0.030365,0.024872,0.096895,-0.074006
0.036164,-0.077668,-0.050813,-0.065156,0.037385,0.034028,0.039826,-0.04593
0.0016785,-0.015717,-0.076143,-0.081636,0.043183,-0.0022889,-0.23758,-0.055085
-0.013275,0.005951,-0.13382,-0.073701,0.0071717,0.0010681,-0.059663,-0.023041
-0.039521,0.05539,-0.079194,-0.095064,-0.0010681,0.0022889,0.10361,-0.0056458
-0.065461,0.021515,-0.065156,-0.12589,0.0016785,-0.009308,0.042267,0.0019837
-0.056001,0.031281,-0.14939,-0.1033,-0.011444,-0.0032044,0.042878,0.053254
-0.038605,0.017548,-0.13382,-0.084688,0.023957,-0.011139,0.066072,0.08011
-0.012055,0.0065614,-0.083467,-0.11337,0.029145,-0.0041199,0.070344,0.07248
-0.030671,-0.093843,-0.056001,-0.083162,0.009308,-0.0016785,0.051423,0.070649
-0.06302,-0.12284,-0.038605,-0.073701,0.002594,-0.0019837,0.05417,0.08011
-0.043183,-0.099641,-0.043183,-0.099947,-0.1738,0.053559,0.062104,0.092622
-0.026703,-0.086824,0.0062562,-0.040131,-0.22812,0.046235,0.032807,0.057221
-0.054475,-0.0206,0.018158,-0.019074,0.0074769,-0.011444,-0.039521,0.0028992
-0.047456,-0.0041199,-0.014191,-0.040742,0.11185,0.016938,-0.014191,-0.034943
-0.0065614,-0.10391,-0.0044251,-0.0090028,0.069734,0.034333,0.055085,-0.055085
-0.022431,-0.074617,-0.024262,-0.0050355,0.095979,0.018158,0.02884,-0.079805
0.010529,-0.064851,-0.035554,-0.14908,0.11429,0.0013733,-0.014496,-0.059052
0.025177,-0.08072,-0.042573,-0.10269,0.077363,-0.0062562,-0.058747,-0.069734
-0.018463,-0.026703,-0.098421,-0.076448,0.045014,-0.0016785,-0.056916,-0.092317
-0.079805,0.058747,-0.12558,-0.15671,0.036774,-0.011749,0.045319,0.035554
-0.10147,0.043793,-0.12039,-0.11307,-0.051423,0.043183,0.10697,0.13596
-0.10422,0.043793,-0.10208,-0.0795,-0.10605,0.050507,0.088655,0.11368
-0.11612,0.056001,-0.12467,-0.11185,-0.045319,-0.0068666,0.17227,0.086213
-0.11307,0.050507,-0.11032,-0.12589,-0.019074,0.019074,0.20584,0.10086
-0.08896,0.022431,-0.077974,-0.075227,-0.051728,0.04654,-0.075532,0.10605
-0.031586,0.0022889,-0.060273,-0.084382,-0.039216,0.038911,-0.13993,0.082246
-0.0071717,-0.024872,-0.036164,-0.047761,0.019684,-0.029755,-0.062715,0.034943
-0.0022889,-0.092927,-0.026398,-0.029145,0.077974,-0.095369,-0.17227,0.0071717
0.039826,-0.089876,-0.035859,-0.069734,0.079805,-0.066377,-0.074922,-0.010834
0.046235,-0.0795,0.0013733,-0.082246,0.10849,-0.067292,-0.022126,-0.04654
0.036774,-0.11673,0.016327,-0.048371,0.025788,0.065461,0.0032044,-0.031281
0.053254,-0.15366,-0.0062562,-0.014496,-0.13657,0.2678,0.19059,-0.0041199
0.062104,-0.12589,-0.027619,-0.077363,-0.048981,0.12985,0.27604,-0.028229
0.06302,-0.11826,-0.018769,-0.048371,-0.014191,-0.078584,0.10544,-0.086824
0.0383,-0.10178,-0.005951,-0.060578,0.02884,-0.068208,-0.059052,-0.12955
0.019074,-0.060883,-0.075227,-0.06363,0.084382,0.011139,-0.20829,-0.13046
-0.020294,0.014191,-0.1207,-0.094453,0.07187,-0.077058,-0.4741,-0.12741
-0.060578,0.036164,-0.14633,-0.091402,0.04715,-0.055695,-0.11917,-0.084382
-0.074922,0.041962,-0.10819,-0.077363,-0.015412,-0.023041,0.14481,-0.0071717
-0.11551,0.098726,-0.13077,-0.15549,-0.010529,-0.011444,0.066682,0.057832
-0.13657,0.091707,-0.10269,-0.11978,-0.033722,0.058137,0.10178,0.12589
-0.10513,0.059663,-0.062104,-0.077668,-0.057832,0.054475,0.14847,0.15915
-0.04593,-0.010224,-0.0206,-0.063325,-0.0022889,-0.013581,0.15213,0.13413
-0.015717,-0.016632,-0.045624,-0.043488,0.03006,-0.019989,0.20096,0.081941
-0.0090028,-0.058137,-0.042267,-0.091402,0.03006,0.0083925,0.041962,0.049592
0.019074,-0.098726,-0.023651,-0.093233,0.0068666,0.034333,-0.25254,0.024872
0.043183,-0.20432,0.023957,-0.01297,-0.017548,0.052644,-0.04654,-0.051423
0.022126,-0.15427,-0.0047303,-0.056916,0.025177,0.010224,0.011139,-0.11582
-0.015106,-0.16861,0.0065614,-0.04654,0.063325,-0.041657,-0.27787,-0.12314
-0.009308,-0.168,-0.062409,0.005951,0.056001,-0.00076295,-0.099336,-0.062715
-0.033722,-0.035554,-0.048371,-0.11398,0.057527,0.033112,0.27848,-0.0047303
-0.060883,0.049897,-0.050202,-0.077668,0.02182,0.050813,0.19303,0.039216
-0.073091,0.065766,-0.053254,-0.064546,-0.019379,0.070344,0.11154,0.062104
-0.070039,0.057527,-0.13962,-0.10544,0.0096132,0.025483,0.045014,0.057527
-0.1091,0.083162,-0.12772,-0.11124,0.015106,-0.013275,-0.0019837,0.065156
-0.11734,0.075837,-0.15183,-0.17166,-0.011139,0.0071717,0.027008,0.066682
-0.089265,0.040742,-0.10056,-0.10147,-0.037385,0.023041,0.050202,0.10605
-0.035859,0.034028,-0.13291,-0.021515,-0.023651,0.0062562,0.036774,0.090486
-0.023041,0.056306,-0.066682,-0.07248,0.0053407,-0.011749,0.024872,0.092622
-0.014496,-0.043793,-0.005951,-0.11185,0.011444,-0.015412,-0.0050355,0.094148
0.0086976,-0.16495,0.017548,-0.11063,-0.012055,0.002594,-0.015717,0.076143
0.054475,-0.2266,0.010834,-0.048371,-0.014801,0.0086976,0.019989,0.019074
0.081636,-0.23239,0.017548,0.063325,0.016632,-0.0047303,0.052949,-0.04654
0.045014,-0.0795,-0.015717,-0.031281,0.076448,-0.0041199,0.0071717,-0.085603
0.012665,-0.043793,-0.0086976,-0.13291,0.095369,-0.016022,-0.034943,-0.10452
0.0096132,-0.048371,-0.030976,-0.065766,0.0047303,-0.013275,-0.10361,-0.081331
0.033112,-0.079805,-0.044709,-0.029145,0.0041199,-0.024872,-0.28153,-0.094453
0.014191,-0.058137,-0.073396,-0.035554,0.019379,0.074617,-0.030365,-0.11307
-0.028229,0.012665,-0.11734,-0.13687,0.056306,0.051118,0.14328,-0.11246
-0.079194,0.050202,-0.09659,-0.1268,0.11948,0.0053407,0.043488,-0.042878
-0.11154,0.094148,-0.091096,-0.090791,0.066072,0.016022,0.045624,0.03006
-0.10117,0.050507,-0.08835,-0.073701,-0.019074,-0.0038148,0.028229,0.034028
-0.10208,0.028229,-0.11704,-0.12131,-0.4097,0.018463,-0.0074769,0.034333
-0.10178,-0.0044251,-0.096895,-0.12284,-0.023346,0.010834,0.042267,0.077363
-0.06363,-0.028534,-0.10758,-0.10788,0.052033,-0.027924,0.061189,0.14054
-0.027008,0.027314,-0.094759,-0.048371,-0.06363,0.011444,0.023346,0.11154
-0.032502,-0.11734,-0.016327,-0.037385,0.025177,0.025177,0.019379,0.03769
-0.041962,-0.084382,-0.0056458,-0.073701,0.018158,-0.0050355,0.018158,0.044099
0.0041199,-0.01297,-0.017548,-0.12253,0.041352,0.028229,0.092012,0.11276
0.0086976,-0.043793,-0.0074769,-0.040131,0.027924,0.044099,0.073701,0.087434
0.012665,-0.10941,0.013581,-0.0062562,0.040131,0.030976,0.012055,0.046845
0.015717,-0.1384,0.0032044,-0.044709,0.073091,0.018463,0.036774,0.044404
0.014801,-0.14267,-0.010224,-0.034638,0.07187,0.0013733,-0.0028992,-0.027314
0.023957,-0.095979,-0.033112,-0.060883,0.036774,-0.00076295,-0.076143,-0.07187
-0.0022889,-0.019684,-0.064546,-0.087739,0.045319,-0.026093,-0.077668,-0.10727
-0.023346,0.0099184,-0.10208,-0.099336,0.019989,-0.023346,-0.081636,-0.0972
-0.061189,0.019684,-0.11368,-0.083467,-0.002594,0.014191,-0.10239,-0.049287
-0.08957,0.050202,-0.12436,-0.103,0.010529,0.0032044,-0.0090028,-0.014191
-0.091096,0.070649,-0.12222,-0.12894,-0.0047303,0.022736,0.040131,0.0099184
-0.084382,0.067292,-0.12528,-0.11398,-0.033112,0.023346,0.10666,0.031281
-0.068208,0.070344,-0.094759,-0.1268,-0.042878,0.032502,0.21653,0.066377
-0.052644,0.03006,-0.072175,-0.11124,-0.0383,0.050507,0.3743,0.079805
-0.039826,-0.017548,-0.051118,-0.081331,0.015412,-0.0028992,-0.095064,0.048371
-0.010224,-0.064546,-0.040742,-0.060578,0.047456,-0.013886,-0.30991,0.077974
0.037385,-0.12589,0.0038148,-0.016022,0.067597,0.00045777,0.069429,0.096284
0.077363,-0.15091,0.016327,0.012665,0.065156,-0.069123,0.022736,0.029145
0.093538,-0.13382,-0.035859,-0.028229,-0.16159,-0.005951,-0.045319,-0.048676
0.085298,-0.13993,0.030976,0.0019837,-0.22477,0.12161,0.026093,-0.057221
0.027314,-0.10025,0.0062562,-0.039216,-0.062715,0.28855,0.0010681,-0.070649
-0.009308,-0.090791,0.002594,-0.14725,0.17746,0.0071717,-0.073091,-0.079805
-0.0071717,-0.12955,-0.017548,-0.15152,0.48325,-0.43961,-0.025788,-0.039826
-0.056001,-0.026398,-0.094453,-0.047456,0.039826,0.03006,0.028229,-0.056916
-0.11551,0.041657,-0.12436,-0.060578,-0.057527,0.028534,0.0065614,-0.060883
-0.12467,0.061799,-0.12467,-0.091402,0.00076295,-0.027314,-0.0086976,-0.050507
-0.14786,0.11978,-0.13657,-0.11551,-0.040436,0.017243,0.017548,-0.0071717
-0.15305,0.11215,-0.11276,-0.1091,-0.02121,0.035248,0.1326,0.049592
-0.11398,0.08011,-0.11093,-0.15457,-0.044404,0.042267,0.23117,0.10575
-0.099641,0.018463,-0.08957,-0.14786,-0.058442,0.03006,0.13382,0.12802
-0.074922,-0.052033,-0.032807,-0.074922,-0.081025,0.06363,0.040131,0.13382
-0.02121,-0.08011,-0.060883,-0.060273,-0.059968,-0.0022889,-0.18509,0.10758
0.028229,-0.17777,-0.034943,-0.04715,0.023651,-0.075532,-0.31815,0.073396
0.053864,-0.16464,0.03006,-0.00076295,0.060578,-0.031891,0.13046,0.044404
0.050202,-0.048066,-0.042267,-0.020294,0.10025,-0.093233,0.13016,-0.0047303
0.065156,-0.040436,-0.030365,-0.010834,0.016022,0.06363,0.032197,-0.011139
0.023041,0.00015259,-0.01236,-0.069123,-0.075837,0.21408,-0.11521,-0.0035096
0.023346,-0.030671,-0.020294,-0.1088,0.02182,0.078279,-0.15274,-0.026398
0.081331,-0.051423,-0.036469,-0.041352,0.060273,0.027008,0.087739,-0.039826
0.04654,-0.0795,-0.035554,-0.031586,0.077974,0.0050355,0.050507,-0.084382
0.0028992,-0.052644,-0.10636,-0.094759,0.066682,-0.0019837,0.0010681,-0.065461
-0.025788,-0.03006,-0.1738,-0.09659,0.0065614,0.02121,-0.01297,-0.064546
-0.039521,-0.13046,-0.051728,-0.074922,-0.019074,0.012665,-0.032807,-0.057832
-0.072175,-0.029755,-0.027619,-0.10269,0.022126,-0.033112,-0.04654,-0.033417
-0.09781,0.03006,-0.14725,-0.12741,0.010529,-0.13901,-0.049592,0.0090028
-0.1265,0.028229,-0.1146,-0.14054,-0.02121,-0.010834,0.050202,0.043793
-0.14664,0.095674,-0.0795,-0.10513,-0.018158,0.06302,0.12406,0.11887
-0.097505,0.035248,-0.056611,-0.069734,-0.014191,0.036164,0.15732,0.16159
-0.040436,-0.056001,-0.050813,-0.024872,-0.0096132,0.0086976,0.11063,0.10636
0.009308,-0.10758,-0.010529,-0.032502,0.02121,-0.018769,-0.019684,0.020905
0.0038148,-0.043793,-0.03006,-0.14359,0.0096132,-0.00076295,-0.095674,-0.078279
0.035554,-0.10025,0.044099,-0.068513,-0.073091,0.037079,-0.12161,-0.081331
0.029145,-0.103,-0.0044251,-0.025483,-0.078889,0.056611,-0.023041,-0.045319
0.018158,-0.086213,-0.024872,-0.046235,0.061799,0.022431,0.034943,-0.043793
0.023651,-0.064546,-0.019989,-0.070344,0.074311,0.036164,0.057832,-0.022126
0.0053407,-0.076753,-0.039216,-0.05539,0.045624,0.037079,0.059663,-0.0096132
-0.00045777,-0.054475,-0.077974,-0.060578,0.037995,0.022431,0.025788,0.024872
-0.027314,-0.043793,-0.097505,-0.07248,0.041962,0.012055,0.016938,0.016022
-0.031891,-0.023346,-0.074311,-0.082246,0.04715,0.0041199,0.019684,0.0035096
-0.074922,0.027314,-0.12863,-0.121,0.024262,-0.0074769,-0.020294,0.02121
-0.12345,0.094759,-0.12467,-0.13046,-0.0074769,-0.0050355,0.0065614,0.065156
-0.1146,0.12314,-0.12253,-0.099947,-0.034638,0.010529,0.13474,0.11643
-0.10239,0.090181,-0.10147,-0.083467,-0.014496,0.0044251,0.17441,0.1207
-0.08835,0.035554,-0.089265,-0.092317,-0.015106,0.019989,0.14206,0.1265
-0.076753,-0.0038148,-0.043793,-0.098421,-0.0080873,-0.024262,0.023041,0.12802
-0.052949,-0.030365,-0.02884,-0.068513,-0.020294,-0.041047,-0.27756,0.094759
-0.039521,-0.046235,-0.010529,-0.051423,-0.02884,0.023041,-0.11948,0.043488
0.005951,-0.097505,0.0062562,-0.036164,-0.02121,0.082246,0.24002,0.011444
0.043183,-0.12467,0.009308,-0.022736,0.005951,0.058442,0.19028,-0.028534
0.072786,-0.1384,0.024262,-0.045319,0.051118,-0.011749,-0.14267,-0.075227
0.092927,-0.17441,-0.0096132,-0.057527,0.076448,-0.039216,-0.28794,-0.10636
0.094453,-0.1561,-0.0096132,-0.10697,0.06302,-0.018158,-0.0032044,-0.12406
0.0795,-0.16159,-0.027619,-0.0068666,0.082551,-0.060273,-0.10941,-0.16709
0.077363,-0.085603,-0.086824,-0.061799,0.059052,-0.005951,-0.026703,-0.12711
0.019379,0.02945,-0.11917,-0.095674,0.017853,0.041047,0.10971,-0.054475
-0.061189,0.055695,-0.11063,-0.12863,-0.0074769,0.018769,0.056306,-0.05478
-0.10636,0.043793,-0.1149,-0.11246,-0.029755,0.033417,0.045014,0.029145
-0.12192,0.009308,-0.16251,-0.103,-0.053559,0.06302,0.015106,0.094759
-0.12161,0.052338,-0.14145,-0.10361,-0.030365,0.025483,0.02121,0.094453
-0.13474,0.084077,-0.059968,-0.10575,0.002594,-0.015412,0.10483,0.11551
-0.11398,0.019989,-0.0013733,-0.034333,0.022736,-0.043793,-0.023041,0.10666
-0.081331,-0.014496,-0.05478,-0.077058,0.018769,-0.04593,-0.05478,0.081941
-0.036469,-0.056916,-0.055085,-0.092927,-0.00076295,0.0062562,0.031891,0.027924
-0.018769,-0.08835,-0.029145,-0.087434,-0.031281,0.05417,0.042878,-0.0065614
-0.0080873,-0.1326,0.034638,-0.022126,-0.022736,0.043488,0.048981,-0.013275
0.0050355,-0.11551,0.012055,-0.026703,0.025177,0.013275,-0.00015259,-0.002594
0.041047,-0.077974,-0.0096132,-0.048981,0.061494,-0.0022889,-0.075837,-0.055695
0.040436,-0.088655,-0.005951,-0.061799,0.04593,0.046235,0.041047,-0.069734
0.05417,-0.068513,-0.023651,-0.036469,0.051728,0.0065614,0.0080873,-0.075227
0.018158,-0.0206,-0.070344,-0.070344,0.053864,-0.017243,-0.031281,-0.083467
-0.030365,-0.010834,-0.092012,-0.079194,0.044404,-0.017548,-0.026398,-0.056916
-0.034943,0.0074769,-0.11063,-0.11154,0.036774,-0.017548,0.013581,-0.013275
-0.052644,0.01236,-0.1268,-0.12131,-0.0028992,0.01297,0.035248,0.04715
-0.08835,0.044404,-0.12467,-0.13077,-0.046845,0.028534,0.035859,0.11154
-0.10025,0.066072,-0.12711,-0.09781,-0.042878,0.019379,0.0065614,0.1564
-0.067597,0.025177,-0.084688,-0.033112,-0.032502,0.0065614,-0.026703,0.15488
-0.059968,0.0099184,-0.11154,-0.15915,-0.027619,-0.029755,-0.036469,0.085908
-0.073701,-0.018769,-0.056001,-0.13169,-0.026703,-0.012055,0.043183,0.04715
-0.065156,-0.0383,-0.042267,-0.069734,-0.049287,0.02945,0.074006,0.075837
-0.02884,-0.070649,0.010834,-0.052644,0.0016785,0.020905,0.041047,0.075532
0.027619,-0.12558,0.042573,-0.0032044,0.069734,0.026703,0.043183,0.027924
0.051728,-0.10758,0.0022889,-0.033112,0.085603,0.027924,0.02121,-0.063325
0.023957,-0.096284,0.0074769,-0.032197,0.099336,0.013275,-0.050813,-0.15152
0.036164,-0.088045,-0.01297,-0.030976,0.019379,0.032197,-0.12528,-0.16648
0.042878,-0.084077,-0.026703,-0.056611,-0.15976,0.05478,-0.042878,-0.090181
0.027008,-0.062715,-0.048371,-0.073396,-0.11154,0.0041199,0.054475,-0.041962
0.02121,-0.027619,-0.10941,-0.10056,0.075532,-0.013275,0.11276,-0.00045777
-0.017548,-0.011749,-0.099641,-0.073396,0.091707,0.011444,0.11917,0.022126
-0.052949,-0.002594,-0.10727,-0.081025,0.022736,0.016022,0.085603,0.053559
-0.10239,0.040742,-0.12314,-0.11704,-0.0090028,0.025483,0.17105,0.10636
-0.11734,0.0080873,-0.11551,-0.12314,-0.014191,0.026398,0.085908,0.13596
-0.085298,-0.033417,-0.14511,-0.083772,-0.0090028,-0.00076295,-0.009308,0.099031
-0.074617,-0.068208,-0.083162,-0.1088,0.35599,-0.059968,-0.0053407,0.040436
-0.056001,-0.023651,-0.0074769,-0.084993,0.18753,0.017243,0.027008,0.015412
-0.040742,0.036469,-0.010529,-0.052644,-0.12314,0.035248,-0.12955,0.010834
-0.035859,0.038605,-0.065156,-0.094453,-0.30961,-0.00015259,-0.3444,0.019684
-0.015106,-0.002594,-0.022431,-0.09659,-0.17655,-0.005951,-0.10819,0.014191
0.012665,-0.070649,-0.00045777,-0.049287,0.14023,-0.10056,0.041352,0.0038148
0.023651,-0.121,0.020905,0.0028992,-0.0010681,-0.094759,0.040436,-0.020294
0.050202,-0.19211,0.012665,0.011749,-0.009308,0.12009,0.13077,-0.042878
0.04715,-0.12558,-0.010529,-0.052949,-0.042878,0.1973,0.21683,-0.057221
0.017243,-0.040436,-0.044099,-0.091402,0.08835,0.0077821,-0.057832,-0.10239
-0.024262,-0.061494,-0.040436,-0.066682,0.090791,-0.011139,-0.093538,-0.09781
-0.023346,-0.050202,-0.059052,-0.064851,0.023651,0.035554,0.011749,-0.079805
-0.041047,-0.0062562,-0.11246,-0.09659,-0.014801,0.031586,0.0068666,-0.037385
-0.035248,-0.0074769,-0.13626,-0.10269,0.005951,-0.00076295,0.010834,0.021515
-0.059663,0.026093,-0.1088,-0.092927,0.009308,0.0038148,0.013886,0.047456
-0.053254,0.04715,-0.11032,-0.10239,-0.01297,-0.0053407,0.0050355,0.082246
-0.08011,0.083772,-0.11063,-0.13931,-0.0013733,-0.020294,-0.002594,0.099641
-0.11246,0.084077,-0.084688,-0.14725,0.0032044,-0.027008,-0.01297,0.078584
-0.096284,0.069734,-0.074617,-0.11032,-0.0080873,-0.014801,0.016938,0.10208
-0.056001,0.016632,-0.052338,-0.09781,-0.039216,0.0047303,0.047761,0.10452
-0.051728,-0.020905,-0.033112,-0.040742,-0.038605,0.011139,0.039521,0.068513
-0.026398,-0.069429,-0.01297,-0.035248,-0.0010681,0.031281,0.053864,0.069429
0.027619,-0.1503,0.023957,-0.027619,0.031281,0.025483,0.061494,0.041352
0.027924,-0.11734,-0.014191,-0.040131,0.067903,-0.0080873,0.039521,-0.033417
0.016632,-0.10025,-0.011749,-0.048371,0.059358,0.014191,0.068513,-0.06302
0.023651,-0.13046,-0.0074769,-0.031586,0.04715,0.042573,0.12772,-0.045014
